Wavelength,Raw_Spectrum,Smoothed_Spectrum,,,# Smoothing method: Savitzky-Golay
400.03188,393,408.9346,,,# Window length: 50 points
400.19923,389,408.94879,,,# Polynomial order: 2
400.36659,425,408.95741,,,
400.53396,428,408.96048,,,
400.70135,399,408.95798,,,
400.86876,396,408.94993,,,
401.03618,417,408.93633,,,
401.20361,428,408.91716,,,
401.37106,419,408.89244,,,
401.53853,409,408.86215,,,
401.70601,400,408.82631,,,
401.8735,399,408.78491,,,
402.04101,414,408.73796,,,
402.20854,396,408.68544,,,
402.37608,415,408.62737,,,
402.54363,448,408.56374,,,
402.7112,397,408.49455,,,
402.87879,431,408.4198,,,
403.04639,420,408.3395,,,
403.214,429,408.25364,,,
403.38163,360,408.16221,,,
403.54928,405,408.06523,,,
403.71694,385,407.9627,,,
403.88462,405,407.8546,,,
404.05231,414,407.74095,,,
404.22001,388,407.62174,,,
404.38773,393,407.87472,,,
404.55547,419,406.85053,,,
404.72322,383,406.91035,,,
404.89099,441,407.00036,,,
405.05877,420,406.00181,,,
405.22656,410,405.1504,,,
405.39437,366,404.24703,,,
405.5622,418,404.61544,,,
405.73004,400,405.04116,,,
405.8979,404,405.44674,,,
406.06577,412,404.76362,,,
406.23365,409,404.11973,,,
406.40155,414,403.87581,,,
406.56947,417,402.84867,,,
406.7374,388,402.29296,,,
406.90535,431,402.91137,,,
407.07331,409,402.02852,,,
407.24129,382,403.44798,,,
407.40928,424,404.93352,,,
407.57728,395,405.19251,,,
407.7453,424,404.22263,,,
407.91334,404,405.23908,,,
408.08139,379,404.39512,,,
408.24946,399,404.71972,,,
408.41754,408,405.31919,,,
408.58564,369,405.56173,,,
408.75375,401,406.01336,,,
408.92188,399,404.42209,,,
409.09002,404,403.34603,,,
409.25817,414,405.26431,,,
409.42635,405,406.35339,,,
409.59453,430,405.83186,,,
409.76273,403,404.778,,,
409.93095,394,405.3256,,,
410.09918,383,405.1832,,,
410.26743,409,404.93506,,,
410.43569,406,404.6667,,,
410.60397,408,405.32816,,,
410.77226,418,405.69168,,,
410.94057,424,406.28481,,,
411.10889,426,405.43002,,,
411.27723,434,407.05423,,,
411.44558,393,406.77848,,,
411.61395,380,405.8976,,,
411.78233,435,406.45068,,,
411.95073,409,406.29514,,,
412.11914,380,407.03882,,,
412.28757,420,407.58008,,,
412.45601,399,406.69084,,,
412.62447,398,406.80645,,,
412.79294,380,406.86475,,,
412.96143,369,405.70894,,,
413.12993,467,404.30506,,,
413.29845,420,404.00428,,,
413.46698,376,402.83155,,,
413.63553,383,403.30991,,,
413.80409,430,403.14089,,,
413.97267,403,403.68427,,,
414.14126,397,403.31543,,,
414.30987,402,403.45917,,,
414.47849,409,402.63501,,,
414.64713,420,402.91986,,,
414.81578,386,401.86582,,,
414.98445,400,401.72604,,,
415.15314,396,401.23235,,,
415.32183,416,402.58685,,,
415.49055,374,403.15183,,,
415.65928,418,404.58572,,,
415.82802,412,404.3702,,,
415.99678,406,404.02936,,,
416.16555,402,405.15316,,,
416.33434,401,405.35131,,,
416.50314,388,403.3774,,,
416.67196,408,404.26578,,,
416.84079,390,403.60742,,,
417.00964,399,403.67857,,,
417.17851,397,402.46024,,,
417.34738,436,400.37903,,,
417.51628,398,401.34848,,,
417.68519,434,401.56683,,,
417.85411,390,400.04924,,,
418.02305,402,399.23692,,,
418.192,405,400.24182,,,
418.36097,412,399.28415,,,
418.52996,383,398.25124,,,
418.69895,399,398.74321,,,
418.86797,383,398.98974,,,
419.037,426,399.42676,,,
419.20604,399,398.80586,,,
419.3751,424,398.89488,,,
419.54418,369,398.40035,,,
419.71326,398,398.87646,,,
419.88237,379,397.24209,,,
420.05149,393,398.51779,,,
420.22062,378,399.31111,,,
420.38977,380,398.64756,,,
420.55894,386,398.27072,,,
420.72812,431,398.00077,,,
420.89731,374,397.01726,,,
421.06652,405,397.06256,,,
421.23574,377,396.80056,,,
421.40498,398,396.54343,,,
421.57424,412,394.97608,,,
421.74351,412,395.31077,,,
421.91279,400,395.12209,,,
422.08209,416,396.22796,,,
422.25141,396,395.28368,,,
422.42074,380,394.88781,,,
422.59008,423,392.89853,,,
422.75944,424,393.79934,,,
422.92882,377,394.33971,,,
423.09821,390,394.62894,,,
423.26761,396,393.46334,,,
423.43703,398,393.75234,,,
423.60647,385,393.97889,,,
423.77592,399,395.34549,,,
423.94538,386,394.91796,,,
424.11486,415,395.49394,,,
424.28436,357,394.35421,,,
424.45387,363,394.05579,,,
424.62339,406,393.07155,,,
424.79293,394,392.30531,,,
424.96249,389,391.21423,,,
425.13206,399,392.25396,,,
425.30164,383,391.56148,,,
425.47124,372,392.1251,,,
425.64086,376,391.31009,,,
425.81049,419,391.64837,,,
425.98013,400,391.50583,,,
426.1498,383,392.05332,,,
426.31947,376,392.53052,,,
426.48916,404,393.48805,,,
426.65887,399,394.15217,,,
426.82859,465,393.68002,,,
426.99832,382,394.85141,,,
427.16808,361,395.95597,,,
427.33784,380,395.28003,,,
427.50762,413,394.95148,,,
427.67742,412,395.27486,,,
427.84723,392,395.31964,,,
428.01705,380,395.71979,,,
428.1869,384,396.00428,,,
428.35675,374,395.76187,,,
428.52662,412,396.30148,,,
428.69651,398,395.39854,,,
428.86641,406,394.69687,,,
429.03633,399,394.4119,,,
429.20626,416,394.20034,,,
429.3762,393,393.61422,,,
429.54617,396,394.10974,,,
429.71614,382,393.11796,,,
429.88613,399,392.59564,,,
430.05614,378,390.83837,,,
430.22616,410,390.9889,,,
430.3962,391,388.96777,,,
430.56625,382,388.70615,,,
430.73632,382,387.85302,,,
430.9064,371,386.82826,,,
431.07649,390,387.16093,,,
431.24661,377,389.43593,,,
431.41673,384,389.30261,,,
431.58688,399,388.43795,,,
431.75703,400,387.41179,,,
431.9272,384,387.85429,,,
432.09739,396,387.67299,,,
432.26759,369,387.34746,,,
432.43781,384,386.3946,,,
432.60804,388,386.61795,,,
432.77829,392,385.15196,,,
432.94855,381,385.06992,,,
433.11883,371,385.29681,,,
433.28912,397,385.4336,,,
433.45943,384,385.64314,,,
433.62975,391,385.97866,,,
433.80009,362,384.77657,,,
433.97044,394,385.42606,,,
434.14081,362,384.67456,,,
434.31119,403,385.0188,,,
434.48159,383,384.26182,,,
434.652,446,385.13384,,,
434.82243,373,384.84974,,,
434.99287,381,383.94251,,,
435.16333,416,384.28293,,,
435.3338,367,384.84883,,,
435.50429,371,385.02034,,,
435.67479,373,384.74434,,,
435.84531,370,384.05776,,,
436.01584,389,384.38182,,,
436.18639,372,383.8884,,,
436.35695,396,383.65571,,,
436.52753,384,383.20139,,,
436.69812,393,382.5225,,,
436.86873,353,381.09291,,,
437.03935,396,380.87979,,,
437.20999,389,381.26768,,,
437.38065,366,380.99105,,,
437.55131,377,380.56574,,,
437.722,368,381.01022,,,
437.8927,383,380.71204,,,
438.06341,419,381.46862,,,
438.23414,362,380.66026,,,
438.40488,395,380.55904,,,
438.57564,376,379.24186,,,
438.74641,393,380.08947,,,
438.9172,371,380.09155,,,
439.088,394,381.66221,,,
439.25882,410,380.99941,,,
439.42966,368,380.28798,,,
439.6005,342,380.95214,,,
439.77137,368,381.47598,,,
439.94225,367,382.15937,,,
440.11314,386,383.32923,,,
440.28405,367,384.00326,,,
440.45497,399,384.97162,,,
440.62591,377,385.12999,,,
440.79687,399,385.62033,,,
440.96784,381,385.94299,,,
441.13882,424,387.16456,,,
441.30982,392,386.02938,,,
441.48083,377,387.22882,,,
441.65186,389,387.73927,,,
441.82291,383,387.09547,,,
441.99396,379,386.8843,,,
442.16504,393,386.84013,,,
442.33613,364,385.83039,,,
442.50723,385,387.8788,,,
442.67835,393,387.37684,,,
442.84949,404,388.51134,,,
443.02064,372,388.71685,,,
443.1918,381,389.29425,,,
443.36298,398,388.72477,,,
443.53417,410,389.68393,,,
443.70538,425,390.55181,,,
443.87661,424,390.30621,,,
444.04785,385,388.42927,,,
444.2191,380,388.80149,,,
444.39037,360,388.53365,,,
444.56166,367,387.69825,,,
444.73296,372,386.78919,,,
444.90427,380,387.2473,,,
445.0756,393,386.56332,,,
445.24695,389,387.16025,,,
445.41831,367,386.91311,,,
445.58968,405,388.32474,,,
445.76107,367,387.22433,,,
445.93248,383,386.11477,,,
446.1039,399,385.21017,,,
446.27533,395,386.14311,,,
446.44678,378,385.98736,,,
446.61825,427,385.74498,,,
446.78973,364,384.7476,,,
446.96122,393,383.98109,,,
447.13273,368,383.22601,,,
447.30426,378,383.4199,,,
447.4758,381,382.11386,,,
447.64735,398,382.31176,,,
447.81892,368,380.91511,,,
447.99051,389,380.60704,,,
448.16211,386,380.65646,,,
448.33373,412,380.99984,,,
448.50536,355,380.43779,,,
448.677,367,380.72294,,,
448.84866,403,379.82092,,,
449.02034,386,379.62321,,,
449.19203,369,379.18057,,,
449.36374,384,378.45292,,,
449.53546,360,378.08609,,,
449.70719,367,377.94226,,,
449.87894,352,377.73809,,,
450.05071,409,377.40289,,,
450.22249,398,376.38087,,,
450.39429,406,375.60183,,,
450.5661,335,376.21919,,,
450.73792,360,376.34461,,,
450.90976,374,375.83606,,,
451.08162,367,377.49152,,,
451.25349,376,377.16859,,,
451.42538,384,378.63607,,,
451.59728,364,378.73012,,,
451.7692,382,378.26954,,,
451.94113,334,378.22005,,,
452.11307,404,378.40547,,,
452.28504,386,377.0149,,,
452.45701,398,376.34628,,,
452.629,399,377.00682,,,
452.80101,399,378.41693,,,
452.97303,366,377.42361,,,
453.14507,383,377.57179,,,
453.31712,361,378.12875,,,
453.48919,369,379.16358,,,
453.66127,385,378.70504,,,
453.83337,388,379.53347,,,
454.00548,379,378.76788,,,
454.1776,356,378.69062,,,
454.34975,399,377.16872,,,
454.5219,388,378.62873,,,
454.69408,397,379.26168,,,
454.86626,368,380.44506,,,
455.03846,383,380.10222,,,
455.21068,390,380.46363,,,
455.38291,370,380.76858,,,
455.55516,376,380.75134,,,
455.72742,340,381.69714,,,
455.8997,356,383.28211,,,
456.07199,382,382.05769,,,
456.2443,371,382.4232,,,
456.41662,382,380.24691,,,
456.58896,410,381.57981,,,
456.76131,413,380.94145,,,
456.93368,369,380.28986,,,
457.10606,372,381.37086,,,
457.27846,399,383.54925,,,
457.45087,370,383.68006,,,
457.6233,394,383.58547,,,
457.79574,364,384.01574,,,
457.9682,398,384.31373,,,
458.14067,370,383.18218,,,
458.31316,400,383.87875,,,
458.48566,383,383.84548,,,
458.65818,417,382.73408,,,
458.83071,376,382.65703,,,
459.00326,399,381.68205,,,
459.17583,396,382.03031,,,
459.3484,376,381.39326,,,
459.521,369,381.2728,,,
459.69361,381,381.80369,,,
459.86623,383,381.72813,,,
460.03887,355,381.84724,,,
460.21152,334,379.90763,,,
460.38419,406,378.5594,,,
460.55687,370,377.97896,,,
460.72957,405,377.72271,,,
460.90228,353,376.73159,,,
461.07501,404,377.25686,,,
461.24775,425,377.72122,,,
461.42051,374,377.57168,,,
461.59329,335,376.59727,,,
461.76608,366,378.26383,,,
461.93888,389,377.99941,,,
462.1117,345,378.52502,,,
462.28453,348,377.99379,,,
462.45738,412,378.74973,,,
462.63024,355,377.36954,,,
462.80312,368,377.87585,,,
462.97602,378,377.46259,,,
463.14893,386,378.76262,,,
463.32185,412,377.75438,,,
463.49479,382,378.16322,,,
463.66774,388,379.69988,,,
463.84071,386,379.92525,,,
464.0137,372,379.30116,,,
464.18669,371,379.45254,,,
464.35971,367,379.99223,,,
464.53274,397,379.06933,,,
464.70578,389,377.83866,,,
464.87884,388,379.08301,,,
465.05192,364,378.53562,,,
465.22501,399,379.03604,,,
465.39811,380,376.51007,,,
465.57123,392,377.65422,,,
465.74436,371,378.72887,,,
465.91751,401,378.36522,,,
466.09068,337,376.75839,,,
466.26386,369,376.87877,,,
466.43705,364,376.82829,,,
466.61026,367,375.87193,,,
466.78349,354,375.236,,,
466.95673,399,376.11937,,,
467.12998,367,375.32254,,,
467.30325,383,373.83694,,,
467.47654,362,373.15414,,,
467.64984,404,373.27305,,,
467.82315,384,372.92176,,,
467.99648,344,372.43254,,,
468.16982,366,372.26087,,,
468.34319,387,371.92516,,,
468.51656,373,371.48429,,,
468.68995,361,370.55292,,,
468.86336,380,369.69515,,,
469.03678,362,369.0658,,,
469.21021,344,368.81861,,,
469.38366,367,368.81175,,,
469.55713,367,368.05117,,,
469.73061,422,367.7086,,,
469.9041,351,367.47378,,,
470.07761,380,368.8426,,,
470.25114,384,368.80038,,,
470.42468,385,369.45197,,,
470.59823,351,368.46252,,,
470.7718,378,368.94303,,,
470.94539,362,367.53147,,,
471.11899,344,366.89103,,,
471.29261,352,365.11941,,,
471.46624,349,366.53795,,,
471.63988,381,365.71653,,,
471.81354,363,366.06734,,,
471.98722,341,365.34945,,,
472.16091,386,366.21212,,,
472.33462,366,366.95683,,,
472.50834,362,366.43718,,,
472.68207,367,366.05611,,,
472.85582,356,367.58645,,,
473.02959,370,367.5261,,,
473.20337,362,367.33296,,,
473.37717,387,367.33296,,,
473.55098,372,367.01538,,,
473.72481,366,365.01142,,,
473.89865,368,364.59725,,,
474.0725,393,363.36209,,,
474.24637,377,364.43272,,,
474.42026,335,364.42889,,,
474.59416,360,365.47489,,,
474.76808,369,365.78595,,,
474.94201,360,367.28012,,,
475.11596,335,366.12154,,,
475.28992,393,366.88731,,,
475.46389,372,367.36329,,,
475.63789,399,367.14075,,,
475.81189,337,366.82878,,,
475.98591,382,365.88353,,,
476.15995,360,364.94904,,,
476.334,376,366.01903,,,
476.50807,368,364.86632,,,
476.68215,356,365.08317,,,
476.85625,356,365.22426,,,
477.03036,370,366.27287,,,
477.20449,324,365.93157,,,
477.37863,362,365.66534,,,
477.55279,353,365.49525,,,
477.72696,365,365.18872,,,
477.90115,358,365.45351,,,
478.07535,397,365.36891,,,
478.24957,367,364.36866,,,
478.4238,398,364.43634,,,
478.59805,385,365.75107,,,
478.77231,355,366.00702,,,
478.94658,345,365.57505,,,
479.12088,376,365.72658,,,
479.29518,339,365.17824,,,
479.46951,396,364.97112,,,
479.64384,360,363.83798,,,
479.8182,353,364.97407,,,
479.99256,354,364.20515,,,
480.16695,360,365.60871,,,
480.34135,376,365.69682,,,
480.51576,413,366.84675,,,
480.69019,329,365.35783,,,
480.86463,377,365.17966,,,
481.03909,377,365.25858,,,
481.21356,362,366.19579,,,
481.38805,322,366.00723,,,
481.56255,370,366.3437,,,
481.73707,355,364.64525,,,
481.9116,364,364.80027,,,
482.08615,360,363.70636,,,
482.26071,367,363.36076,,,
482.43529,367,362.91991,,,
482.60988,396,363.90321,,,
482.78449,365,363.55739,,,
482.95911,349,363.27072,,,
483.13375,372,363.91352,,,
483.30841,351,362.62461,,,
483.48307,350,362.27613,,,
483.65776,383,362.18148,,,
483.83246,364,361.12732,,,
484.00717,367,361.88208,,,
484.1819,346,360.86333,,,
484.35664,394,360.29283,,,
484.5314,353,359.35627,,,
484.70617,332,359.4599,,,
484.88096,334,358.30608,,,
485.05577,404,359.41303,,,
485.23059,382,357.90321,,,
485.40542,369,357.42483,,,
485.58027,324,357.53417,,,
485.75513,356,358.31432,,,
485.93001,350,357.81209,,,
486.10491,369,358.80806,,,
486.27981,338,358.84391,,,
486.45474,368,357.2772,,,
486.62968,353,357.19966,,,
486.80463,346,358.31013,,,
486.9796,335,358.35425,,,
487.15458,350,358.86512,,,
487.32958,384,358.60103,,,
487.5046,346,359.74326,,,
487.67963,384,359.64427,,,
487.85467,340,359.86811,,,
488.02973,360,359.23665,,,
488.20481,354,359.9952,,,
488.37989,349,359.45809,,,
488.555,377,359.64051,,,
488.73012,355,358.55657,,,
488.90525,367,359.99246,,,
489.0804,335,359.25928,,,
489.25557,396,358.32948,,,
489.43075,367,356.74824,,,
489.60594,376,358.73818,,,
489.78115,392,360.33548,,,
489.95638,380,360.07835,,,
490.13162,344,359.02249,,,
490.30687,340,359.50964,,,
490.48214,329,359.18034,,,
490.65743,342,358.99812,,,
490.83273,408,358.15599,,,
491.00804,358,358.99112,,,
491.18337,321,359.23174,,,
491.35872,354,358.63881,,,
491.53408,372,357.7828,,,
491.70945,374,356.97821,,,
491.88484,306,357.08911,,,
492.06025,367,355.69678,,,
492.23567,334,355.99241,,,
492.4111,358,356.33851,,,
492.58655,344,356.47598,,,
492.76202,372,356.36144,,,
492.9375,353,355.46171,,,
493.11299,376,355.83488,,,
493.2885,341,355.04116,,,
493.46403,377,354.59338,,,
493.63957,362,354.32778,,,
493.81513,384,355.99028,,,
493.9907,335,354.90756,,,
494.16628,328,355.65764,,,
494.34188,381,356.70862,,,
494.5175,364,357.50216,,,
494.69313,339,357.75005,,,
494.86878,358,357.78824,,,
495.04444,374,357.65193,,,
495.22011,367,357.58482,,,
495.3958,338,359.07801,,,
495.57151,340,359.78376,,,
495.74723,358,358.57893,,,
495.92297,352,359.13486,,,
496.09872,362,358.46805,,,
496.27448,368,358.83044,,,
496.45027,386,357.01855,,,
496.62606,372,357.47016,,,
496.80187,325,357.11409,,,
496.9777,346,356.91024,,,
497.15354,346,355.71546,,,
497.3294,366,356.45974,,,
497.50527,352,356.12768,,,
497.68116,372,356.00652,,,
497.85706,376,355.14354,,,
498.03297,336,355.3439,,,
498.2089,328,355.35484,,,
498.38485,398,355.48017,,,
498.56081,351,353.78332,,,
498.73679,362,352.10143,,,
498.91278,366,351.91438,,,
499.08879,350,352.73755,,,
499.26481,349,352.40313,,,
499.44085,337,352.60069,,,
499.6169,340,352.72124,,,
499.79297,355,353.75288,,,
499.96905,335,353.01092,,,
500.14515,358,351.97463,,,
500.32126,325,352.48264,,,
500.49738,386,352.69934,,,
500.67353,360,351.88722,,,
500.84968,364,350.90172,,,
501.02586,344,352.35772,,,
501.20204,334,352.89771,,,
501.37825,348,353.12426,,,
501.55446,367,353.59865,,,
501.73069,328,353.4415,,,
501.90694,343,353.37195,,,
502.0832,360,353.43949,,,
502.25948,351,354.59422,,,
502.43577,351,354.89973,,,
502.61208,344,354.095,,,
502.7884,366,353.67707,,,
502.96474,384,355.314,,,
503.1411,377,355.4702,,,
503.31746,384,355.17638,,,
503.49385,337,355.79132,,,
503.67024,348,356.0321,,,
503.84666,346,356.75927,,,
504.02308,367,356.29951,,,
504.19953,331,355.87481,,,
504.37598,360,356.31312,,,
504.55246,371,354.98503,,,
504.72895,335,355.01357,,,
504.90545,335,354.83377,,,
505.08197,381,356.03463,,,
505.2585,402,355.36923,,,
505.43505,345,355.15396,,,
505.61161,367,355.48563,,,
505.78819,328,356.11896,,,
505.96478,332,356.36406,,,
506.14139,349,355.88353,,,
506.31801,367,355.00163,,,
506.49465,350,355.01808,,,
506.67131,332,355.0321,,,
506.84797,368,355.02134,,,
507.02466,369,354.82376,,,
507.20136,344,354.81739,,,
507.37807,344,354.01167,,,
507.5548,350,354.14469,,,
507.73154,379,354.55367,,,
507.9083,357,355.46576,,,
508.08508,355,355.25625,,,
508.26186,335,355.29403,,,
508.43867,360,354.57224,,,
508.61549,360,355.62642,,,
508.79232,344,353.70704,,,
508.96917,384,353.38785,,,
509.14603,363,354.59908,,,
509.32291,333,354.32354,,,
509.49981,344,352.82743,,,
509.67672,387,353.29987,,,
509.85364,383,354.21495,,,
510.03058,346,354.26789,,,
510.20753,318,354.14127,,,
510.3845,337,353.51097,,,
510.56149,382,351.94953,,,
510.73849,358,352.79859,,,
510.9155,337,352.38973,,,
511.09253,351,352.98972,,,
511.26957,341,352.23081,,,
511.44663,344,352.3856,,,
511.62371,325,352.62561,,,
511.8008,373,351.79547,,,
511.9779,366,350.17067,,,
512.15502,356,349.93791,,,
512.33216,351,350.39176,,,
512.50931,342,350.51589,,,
512.68647,340,350.19337,,,
512.86365,362,348.95429,,,
513.04085,321,348.94102,,,
513.21806,385,348.93626,,,
513.39528,362,348.39466,,,
513.57252,321,349.12089,,,
513.74977,330,347.73836,,,
513.92704,367,347.17296,,,
514.10433,348,346.87708,,,
514.28163,362,346.76482,,,
514.45895,338,347.77227,,,
514.63628,367,347.88,,,
514.81362,345,346.63351,,,
514.99098,378,345.65481,,,
515.16836,309,345.85257,,,
515.34575,368,346.00417,,,
515.52315,316,345.0986,,,
515.70057,337,344.98625,,,
515.87801,339,344.98532,,,
516.05546,338,345.05869,,,
516.23292,349,344.1803,,,
516.4104,377,344.09126,,,
516.5879,336,344.35679,,,
516.76541,342,344.88292,,,
516.94294,332,345.92885,,,
517.12048,344,346.16471,,,
517.29803,354,345.98591,,,
517.4756,336,347.54638,,,
517.65319,335,346.90081,,,
517.83079,335,348.0398,,,
518.00841,332,347.44846,,,
518.18604,390,347.66966,,,
518.36368,335,345.77442,,,
518.54134,332,346.78117,,,
518.71902,373,347.13588,,,
518.89671,340,347.17874,,,
519.07442,335,346.5801,,,
519.25214,349,347.4037,,,
519.42987,356,347.38261,,,
519.60763,366,349.18555,,,
519.78539,350,348.09153,,,
519.96317,367,349.73732,,,
520.14097,356,348.66921,,,
520.31878,342,348.55184,,,
520.49661,340,348.11914,,,
520.67445,350,348.47294,,,
520.8523,374,348.84335,,,
521.03018,363,350.26472,,,
521.20806,348,350.26309,,,
521.38596,324,350.48819,,,
521.56388,339,350.48579,,,
521.74181,349,351.91404,,,
521.91976,309,351.27935,,,
522.09772,337,350.99656,,,
522.2757,340,350.57161,,,
522.45369,384,350.45598,,,
522.6317,315,349.05051,,,
522.80972,393,350.35994,,,
522.98776,335,348.59458,,,
523.16581,338,348.21991,,,
523.34387,365,348.51204,,,
523.52196,367,348.43036,,,
523.70005,351,347.08668,,,
523.87817,361,346.86688,,,
524.05629,335,346.98156,,,
524.23444,364,347.06412,,,
524.41259,328,346.59453,,,
524.59077,367,346.5298,,,
524.76895,354,346.63995,,,
524.94715,367,346.50912,,,
525.12537,338,345.37632,,,
525.3036,346,345.88351,,,
525.48185,340,346.63931,,,
525.66011,348,347.23541,,,
525.83839,344,347.45356,,,
526.01668,338,347.21215,,,
526.19499,293,346.61476,,,
526.37332,370,347.30003,,,
526.55165,341,346.0781,,,
526.73001,341,346.78958,,,
526.90837,325,346.16,,,
527.08676,362,347.75639,,,
527.26515,330,345.71839,,,
527.44357,384,347.86269,,,
527.622,333,346.79929,,,
527.80044,351,345.77775,,,
527.9789,331,347.02376,,,
528.15737,367,348.28064,,,
528.33586,343,348.32893,,,
528.51436,338,349.537,,,
528.69288,351,349.49428,,,
528.87141,357,351.32809,,,
529.04996,365,350.73356,,,
529.22852,353,351.88052,,,
529.4071,348,351.35675,,,
529.5857,382,352.65118,,,
529.7643,338,352.71145,,,
529.94293,356,353.09409,,,
530.12157,356,352.99504,,,
530.30022,357,353.84604,,,
530.47889,347,354.09232,,,
530.65757,373,353.96609,,,
530.83627,340,351.50196,,,
531.01498,361,353.05717,,,
531.19371,316,352.99758,,,
531.37246,360,353.00075,,,
531.55121,330,352.38137,,,
531.72999,386,353.2097,,,
531.90878,324,351.21158,,,
532.08758,378,352.08587,,,
532.2664,383,351.21482,,,
532.44523,335,350.61535,,,
532.62408,337,349.84387,,,
532.80295,364,349.81275,,,
532.98183,336,349.03298,,,
533.16072,351,348.58264,,,
533.33963,313,348.40112,,,
533.51855,356,347.94068,,,
533.69749,335,348.10822,,,
533.87645,383,347.97214,,,
534.05542,339,346.93647,,,
534.2344,352,347.47555,,,
534.4134,348,346.53956,,,
534.59242,358,346.3847,,,
534.77144,332,345.84781,,,
534.95049,346,346.22395,,,
535.12955,351,345.35387,,,
535.30862,382,347.30812,,,
535.48771,319,345.51496,,,
535.66682,342,345.00598,,,
535.84594,336,343.83741,,,
536.02507,335,344.69463,,,
536.20422,317,344.75016,,,
536.38339,380,346.23201,,,
536.56257,340,344.5932,,,
536.74176,349,345.99796,,,
536.92097,357,346.85741,,,
537.1002,341,346.35269,,,
537.27944,351,346.29566,,,
537.45869,354,347.34911,,,
537.63796,335,347.53983,,,
537.81725,335,347.57061,,,
537.99655,350,346.96673,,,
538.17586,338,348.26175,,,
538.35519,336,346.71111,,,
538.53454,362,348.6161,,,
538.7139,347,349.50139,,,
538.89327,356,349.94134,,,
539.07266,348,349.95135,,,
539.25207,364,350.58785,,,
539.43149,336,349.62563,,,
539.61093,370,351.09552,,,
539.79038,300,351.77383,,,
539.96984,396,352.42449,,,
540.14932,382,350.92754,,,
540.32882,362,351.83909,,,
540.50833,335,351.69007,,,
540.68785,328,352.14354,,,
540.86739,334,350.12759,,,
541.04695,381,351.63134,,,
541.22652,334,350.66473,,,
541.40611,364,351.03975,,,
541.58571,368,351.09076,,,
541.76532,355,352.13042,,,
541.94496,345,352.68267,,,
542.1246,346,353.88697,,,
542.30426,367,353.49684,,,
542.48394,349,353.72423,,,
542.66363,322,353.95993,,,
542.84334,399,354.25982,,,
543.02306,335,354.4644,,,
543.20279,324,355.07185,,,
543.38254,349,354.40359,,,
543.56231,361,355.50558,,,
543.74209,352,356.28399,,,
543.92189,383,356.45038,,,
544.1017,312,356.05006,,,
544.28153,339,356.39978,,,
544.46137,376,354.80894,,,
544.64123,393,357.13692,,,
544.8211,333,357.54207,,,
545.00098,360,358.74244,,,
545.18089,335,358.98088,,,
545.3608,399,358.6749,,,
545.54073,346,357.66597,,,
545.72068,395,358.70656,,,
545.90064,362,357.30417,,,
546.08062,385,357.03692,,,
546.26061,336,357.41639,,,
546.44062,360,358.21316,,,
546.62064,340,358.2851,,,
546.80068,374,357.62069,,,
546.98073,351,358.07751,,,
547.1608,364,357.94845,,,
547.34088,348,356.42601,,,
547.52098,344,358.57963,,,
547.70109,354,357.8961,,,
547.88122,385,357.1856,,,
548.06136,334,356.2598,,,
548.24152,332,356.20621,,,
548.42169,368,355.65954,,,
548.60187,360,356.90199,,,
548.78208,370,355.48599,,,
548.96229,364,355.75533,,,
549.14253,323,355.54334,,,
549.32278,380,356.31314,,,
549.50304,337,356.05187,,,
549.68332,338,356.47822,,,
549.86361,342,355.10091,,,
550.04392,367,356.66312,,,
550.22424,345,355.80487,,,
550.40458,383,358.02603,,,
550.58493,378,357.80487,,,
550.7653,365,358.69259,,,
550.94568,338,358.79109,,,
551.12608,349,359.49922,,,
551.30649,374,358.94521,,,
551.48692,359,359.65569,,,
551.66736,362,360.31357,,,
551.84782,381,361.32662,,,
552.02829,334,361.34345,,,
552.20878,367,361.78915,,,
552.38928,352,361.41817,,,
552.5698,382,362.23253,,,
552.75034,367,360.37011,,,
552.93088,377,359.4767,,,
553.11145,350,359.34567,,,
553.29203,367,360.71943,,,
553.47262,328,360.92906,,,
553.65323,380,361.79689,,,
553.83385,372,360.33219,,,
554.01449,348,362.34082,,,
554.19514,347,362.77789,,,
554.37581,382,362.60944,,,
554.5565,349,361.53603,,,
554.7372,382,362.67358,,,
554.91791,328,361.52647,,,
555.09864,381,362.7182,,,
555.27938,373,363.30624,,,
555.46014,352,363.64158,,,
555.64091,352,362.3847,,,
555.8217,374,362.22564,,,
556.00251,367,362.7761,,,
556.18333,346,362.99785,,,
556.36416,344,363.02295,,,
556.54501,360,363.8952,,,
556.72587,337,363.76092,,,
556.90675,372,364.18506,,,
557.08765,367,363.22198,,,
557.26856,413,363.86845,,,
557.44948,380,365.2311,,,
557.63042,393,366.53659,,,
557.81137,335,366.38275,,,
557.99234,385,367.43582,,,
558.17333,360,366.04435,,,
558.35433,398,366.80342,,,
558.53534,336,366.69456,,,
558.71637,341,366.81318,,,
558.89742,355,365.42304,,,
559.07848,387,366.30032,,,
559.25955,335,365.51781,,,
559.44064,389,366.59859,,,
559.62175,349,365.979,,,
559.80287,367,366.83542,,,
559.984,365,367.17701,,,
560.16515,393,367.05393,,,
560.34632,366,366.64257,,,
560.5275,367,366.82602,,,
560.70869,364,366.51082,,,
560.8899,374,366.02005,,,
561.07113,367,365.65009,,,
561.25237,352,365.34698,,,
561.43362,362,364.26157,,,
561.61489,396,364.61363,,,
561.79618,376,364.70393,,,
561.97748,337,365.04754,,,
562.15879,346,365.06745,,,
562.34012,367,366.39407,,,
562.52147,340,365.50866,,,
562.70283,380,365.39494,,,
562.8842,358,365.97626,,,
563.06559,383,367.71481,,,
563.247,351,367.10906,,,
563.42842,400,366.48486,,,
563.60986,361,365.8113,,,
563.79131,386,366.83499,,,
563.97277,357,364.59082,,,
564.15425,357,364.4401,,,
564.33575,356,364.25292,,,
564.51726,367,365.49836,,,
564.69879,361,365.35444,,,
564.88033,368,365.66183,,,
565.06188,370,366.04913,,,
565.24345,383,366.51068,,,
565.42504,368,365.84602,,,
565.60664,357,366.5078,,,
565.78826,367,366.97178,,,
565.96989,367,366.94263,,,
566.15153,349,367.06492,,,
566.33319,350,368.43353,,,
566.51487,393,368.03248,,,
566.69656,381,368.67936,,,
566.87827,354,368.5312,,,
567.05999,370,369.30818,,,
567.24173,396,368.3027,,,
567.42348,350,368.66156,,,
567.60524,348,369.13973,,,
567.78703,364,369.89501,,,
567.96882,364,370.56862,,,
568.15063,377,372.80924,,,
568.33246,352,372.84199,,,
568.5143,413,374.02489,,,
568.69616,403,374.73454,,,
568.87803,368,374.85877,,,
569.05992,332,375.35523,,,
569.24182,374,375.72668,,,
569.42374,392,375.70525,,,
569.60567,367,376.10009,,,
569.78761,365,376.3037,,,
569.96958,403,376.58303,,,
570.15155,372,376.96632,,,
570.33355,373,376.45376,,,
570.51555,374,376.52069,,,
570.69757,378,376.47813,,,
570.87961,373,374.22331,,,
571.06166,422,373.24327,,,
571.24373,348,372.78457,,,
571.42581,377,373.01003,,,
571.60791,364,372.65315,,,
571.79002,396,371.84675,,,
571.97215,392,372.12292,,,
572.15429,367,371.54776,,,
572.33645,383,369.5707,,,
572.51862,352,369.62495,,,
572.70081,344,367.62409,,,
572.88301,380,367.18947,,,
573.06523,367,365.04947,,,
573.24746,352,365.75223,,,
573.42971,367,365.86324,,,
573.61197,348,364.5582,,,
573.79425,358,361.99239,,,
573.97654,362,361.04261,,,
574.15885,351,359.89581,,,
574.34117,356,358.98507,,,
574.52351,366,357.87585,,,
574.70587,346,359.37695,,,
574.88823,361,358.93585,,,
575.07062,347,358.73413,,,
575.25301,346,357.91567,,,
575.43543,402,358.26617,,,
575.61786,358,357.96983,,,
575.8003,384,358.4228,,,
575.98276,352,357.15708,,,
576.16523,340,357.49292,,,
576.34772,367,357.44042,,,
576.53022,358,358.95332,,,
576.71274,338,360.23151,,,
576.89527,378,361.39806,,,
577.07782,319,362.96408,,,
577.26039,385,362.3374,,,
577.44296,345,361.55782,,,
577.62556,376,362.73209,,,
577.80817,342,361.89014,,,
577.99079,357,361.39272,,,
578.17343,374,362.1617,,,
578.35608,380,363.19248,,,
578.53875,366,363.32322,,,
578.72144,397,364.08836,,,
578.90413,370,364.49226,,,
579.08685,376,363.69569,,,
579.26958,326,363.55378,,,
579.45232,361,363.07568,,,
579.63508,354,363.02043,,,
579.81785,378,362.72378,,,
580.00064,344,362.22021,,,
580.18345,361,363.76804,,,
580.36627,394,364.04865,,,
580.5491,388,365.06039,,,
580.73195,365,365.04136,,,
580.91481,367,364.63918,,,
581.09769,348,365.40875,,,
581.28059,356,366.01529,,,
581.4635,335,364.84539,,,
581.64642,335,365.02859,,,
581.82936,379,364.04759,,,
582.01232,377,365.24202,,,
582.19528,347,365.17584,,,
582.37827,408,365.65136,,,
582.56127,388,364.18909,,,
582.74428,362,363.8245,,,
582.92731,330,364.28537,,,
583.11036,366,365.19926,,,
583.29342,347,364.8412,,,
583.47649,344,365.26999,,,
583.65958,389,365.33376,,,
583.84269,381,366.09343,,,
584.02581,374,364.89413,,,
584.20894,375,365.72335,,,
584.39209,369,366.09033,,,
584.57526,373,367.59918,,,
584.75844,362,365.80185,,,
584.94163,364,366.16836,,,
585.12484,367,366.63086,,,
585.30807,372,368.28667,,,
585.49131,371,369.13115,,,
585.67456,356,370.16786,,,
585.85783,350,370.832,,,
586.04112,388,371.50952,,,
586.22442,385,370.7848,,,
586.40773,364,370.47924,,,
586.59106,352,369.33491,,,
586.77441,352,370.1581,,,
586.95777,362,369.36062,,,
587.14115,395,371.80145,,,
587.32454,373,373.4035,,,
587.50794,362,373.17991,,,
587.69136,353,372.97316,,,
587.8748,384,373.55288,,,
588.05825,396,373.23285,,,
588.24172,390,373.34524,,,
588.4252,377,374.30141,,,
588.60869,394,375.73499,,,
588.7922,357,375.89771,,,
588.97573,362,376.48783,,,
589.15927,344,377.05112,,,
589.34283,424,377.75877,,,
589.5264,370,376.79658,,,
589.70998,405,376.11085,,,
589.89358,366,375.42175,,,
590.0772,372,376.20175,,,
590.26083,367,376.54191,,,
590.44448,357,376.18474,,,
590.62814,359,375.47684,,,
590.81182,381,376.32569,,,
590.99551,360,376.76172,,,
591.17921,435,376.5001,,,
591.36293,374,376.71542,,,
591.54667,400,376.23172,,,
591.73042,353,374.63639,,,
591.91419,364,375.04344,,,
592.09797,403,374.99742,,,
592.28177,368,374.25027,,,
592.46558,372,373.56391,,,
592.64941,381,373.67549,,,
592.83325,357,373.73956,,,
593.0171,370,374.65562,,,
593.20098,345,374.90079,,,
593.38486,380,375.5411,,,
593.56876,367,375.71161,,,
593.75268,360,375.95649,,,
593.93661,356,374.12911,,,
594.12056,402,375.7587,,,
594.30452,398,375.85594,,,
594.4885,405,376.95388,,,
594.67249,361,376.83467,,,
594.8565,373,377.53707,,,
595.04052,380,377.09266,,,
595.22456,383,378.11291,,,
595.40861,367,377.58359,,,
595.59268,380,378.48975,,,
595.77676,384,378.31335,,,
595.96086,351,380.88709,,,
596.14497,367,382.45199,,,
596.3291,414,383.88901,,,
596.51324,384,382.55958,,,
596.6974,380,382.12562,,,
596.88157,393,383.49983,,,
597.06576,380,384.15932,,,
597.24996,383,385.66212,,,
597.43418,402,386.44536,,,
597.61841,372,385.78482,,,
597.80266,383,386.40708,,,
597.98692,390,385.88709,,,
598.1712,369,387.05896,,,
598.35549,366,386.0959,,,
598.5398,416,385.68113,,,
598.72412,384,382.96906,,,
598.90846,387,383.27409,,,
599.09281,392,382.07944,,,
599.27718,399,381.34427,,,
599.46157,377,379.72878,,,
599.64596,412,378.36182,,,
599.83038,349,376.58783,,,
600.01481,398,376.11484,,,
600.19925,370,374.96856,,,
600.38371,383,375.08014,,,
600.56818,367,374.30411,,,
600.75267,340,373.05259,,,
600.93717,367,372.08947,,,
601.12169,416,372.50253,,,
601.30622,398,371.96675,,,
601.49077,378,371.68339,,,
601.67534,367,371.83662,,,
601.85992,335,373.05898,,,
602.04451,362,373.78545,,,
602.22912,384,375.31326,,,
602.41374,348,374.78935,,,
602.59838,352,375.57055,,,
602.78303,318,375.59197,,,
602.9677,370,375.86362,,,
603.15239,337,375.72538,,,
603.33709,406,377.71906,,,
603.5218,350,377.36298,,,
603.70653,401,377.58398,,,
603.89127,402,378.96177,,,
604.07603,393,381.1487,,,
604.26081,398,381.42959,,,
604.44559,425,382.54144,,,
604.6304,390,382.07072,,,
604.81522,399,383.62069,,,
605.00005,369,384.4507,,,
605.1849,405,385.79268,,,
605.36977,389,384.86208,,,
605.55465,393,384.76949,,,
605.73954,398,385.34694,,,
605.92445,408,386.95148,,,
606.10937,400,388.68414,,,
606.29431,403,389.84242,,,
606.47927,354,391.09411,,,
606.66424,370,391.28442,,,
606.84922,361,391.60658,,,
607.03422,402,392.96426,,,
607.21924,369,392.74545,,,
607.40427,404,393.67988,,,
607.58931,376,391.36873,,,
607.77437,384,391.76591,,,
607.95945,362,389.58226,,,
608.14454,415,389.52404,,,
608.32964,405,388.85667,,,
608.51476,374,390.02512,,,
608.6999,353,389.84482,,,
608.88505,396,390.13235,,,
609.07021,410,390.14648,,,
609.25539,406,391.51471,,,
609.44059,388,391.10736,,,
609.6258,386,391.51496,,,
609.81102,381,390.74618,,,
609.99626,447,391.78018,,,
610.18152,393,391.16159,,,
610.36679,393,391.58257,,,
610.55207,412,391.92845,,,
610.73737,398,392.5302,,,
610.92269,401,392.90543,,,
611.10802,386,394.86915,,,
611.29337,383,394.30225,,,
611.47873,399,394.68149,,,
611.6641,384,394.02193,,,
611.84949,398,394.99728,,,
612.0349,353,394.37847,,,
612.22032,418,395.47025,,,
612.40576,370,395.72455,,,
612.59121,418,395.58543,,,
612.77667,416,396.24091,,,
612.96215,379,396.16906,,,
613.14765,360,397.25058,,,
613.33316,407,397.74081,,,
613.51869,384,396.83501,,,
613.70423,399,396.96933,,,
613.88978,384,397.40939,,,
614.07535,414,399.25271,,,
614.26094,399,399.24843,,,
614.44654,410,399.5876,,,
614.63216,385,399.87902,,,
614.81779,429,403.35693,,,
615.00344,402,403.84865,,,
615.1891,413,404.7908,,,
615.37477,421,405.63338,,,
615.56046,429,408.05434,,,
615.74617,382,409.33484,,,
615.93189,417,410.77137,,,
616.11763,397,411.75318,,,
616.30338,420,413.62731,,,
616.48915,406,414.59483,,,
616.67493,429,416.20055,,,
616.86073,408,416.59034,,,
617.04654,409,418.81984,,,
617.23236,431,418.39509,,,
617.41821,378,420.48588,,,
617.60406,457,421.91746,,,
617.78994,417,422.80212,,,
617.97582,406,422.4162,,,
618.16172,428,422.99259,,,
618.34764,436,423.97286,,,
618.53357,447,425.04564,,,
618.71952,400,424.78842,,,
618.90548,447,426.57657,,,
619.09146,437,427.17525,,,
619.27745,435,428.9263,,,
619.46346,396,428.33247,,,
619.64948,449,430.93878,,,
619.83552,438,432.24524,,,
620.02157,468,433.02521,,,
620.20764,405,434.99495,,,
620.39372,448,437.96559,,,
620.57982,430,438.7908,,,
620.76593,442,441.2914,,,
620.95206,428,441.85472,,,
621.1382,444,444.46318,,,
621.32436,437,446.37573,,,
621.51053,429,449.33462,,,
621.69672,428,450.0207,,,
621.88292,472,452.30424,,,
622.06914,437,453.15432,,,
622.25537,463,453.77574,,,
622.44162,447,456.68763,,,
622.62788,468,459.28325,,,
622.81416,485,461.24256,,,
623.00045,451,463.95363,,,
623.18676,462,466.94922,,,
623.37309,495,470.70953,,,
623.55942,459,472.40624,,,
623.74578,488,476.22637,,,
623.93215,463,478.30263,,,
624.11853,522,480.58871,,,
624.30493,463,481.33663,,,
624.49134,483,484.56737,,,
624.67777,518,487.5637,,,
624.86421,494,491.47235,,,
625.05067,473,493.41512,,,
625.23714,500,497.38098,,,
625.42363,478,499.9,,,
625.61014,527,503.70482,,,
625.79665,484,505.98337,,,
625.98319,494,509.97064,,,
626.16974,482,511.17532,,,
626.3563,543,514.0827,,,
626.54288,493,516.56658,,,
626.72947,571,520.47682,,,
626.91608,533,522.04906,,,
627.10271,540,524.71089,,,
627.28934,518,527.2989,,,
627.476,529,531.84824,,,
627.66267,527,535.66477,,,
627.84935,529,538.99024,,,
628.03605,518,541.60808,,,
628.22276,542,546.0349,,,
628.40949,517,549.23917,,,
628.59624,572,553.50164,,,
628.783,572,555.95001,,,
628.96977,591,561.10714,,,
629.15656,565,563.44882,,,
629.34336,568,567.45106,,,
629.53018,575,572.58205,,,
629.71702,584,577.1342,,,
629.90387,559,580.20494,,,
630.09073,593,584.18614,,,
630.27761,563,588.08342,,,
630.46451,602,593.33835,,,
630.65142,560,596.76287,,,
630.83834,652,600.51854,,,
631.02528,591,603.07309,,,
631.21223,602,608.51963,,,
631.3992,599,611.2037,,,
631.58619,649,617.60898,,,
631.77319,646,622.10822,,,
631.9602,639,626.9272,,,
632.14723,594,630.93538,,,
632.33428,639,636.40069,,,
632.52134,625,640.92818,,,
632.70841,662,646.01472,,,
632.8955,640,649.8578,,,
633.08261,649,654.9545,,,
633.26973,644,658.79676,,,
633.45686,685,664.37342,,,
633.64401,660,669.25104,,,
633.83118,705,675.29061,,,
634.01836,673,680.50092,,,
634.20555,675,685.77605,,,
634.39276,676,690.25138,,,
634.57999,708,696.71553,,,
634.76723,709,701.21147,,,
634.95449,692,707.40071,,,
635.14176,697,712.46388,,,
635.32904,720,718.34723,,,
635.51634,720,723.0152,,,
635.70366,751,730.84833,,,
635.89099,719,735.96897,,,
636.07833,769,742.05182,,,
636.26569,729,746.87554,,,
636.45307,766,754.17355,,,
636.64046,772,761.17966,,,
636.82787,786,767.8472,,,
637.01529,751,772.39691,,,
637.20272,783,778.98954,,,
637.39017,768,784.25534,,,
637.57764,800,791.08455,,,
637.76512,783,796.45018,,,
637.95262,800,803.23874,,,
638.14013,798,808.55544,,,
638.32766,830,815.85945,,,
638.5152,820,821.96346,,,
638.70275,830,829.77191,,,
638.89032,836,835.94793,,,
639.07791,879,841.83972,,,
639.26551,828,847.77941,,,
639.45313,873,854.78883,,,
639.64076,854,860.90405,,,
639.82841,864,867.23631,,,
640.01607,878,873.03787,,,
640.20374,879,880.17871,,,
640.39144,867,886.5498,,,
640.57914,905,893.8805,,,
640.76686,885,899.94075,,,
640.9546,927,908.17328,,,
641.14235,899,914.35641,,,
641.33012,913,921.63519,,,
641.5179,924,929.51238,,,
641.7057,954,938.3174,,,
641.89351,931,944.97846,,,
642.08134,965,952.82706,,,
642.26918,954,960.08483,,,
642.45703,988,967.97332,,,
642.64491,951,974.80679,,,
642.83279,997,982.44803,,,
643.0207,975,988.98768,,,
643.20861,994,997.47707,,,
643.39655,985,1004.29428,,,
643.58449,1013,1012.33301,,,
643.77245,1028,1020.63349,,,
643.96043,1030,1029.30997,,,
644.14842,1029,1037.40968,,,
644.33643,1068,1046.68511,,,
644.52445,1049,1054.7341,,,
644.71249,1074,1064.11171,,,
644.90054,1054,1071.31237,,,
645.08861,1083,1079.5151,,,
645.27669,1088,1084.35885,,,
645.46479,1105,1090.8752,,,
645.6529,1086,1096.19436,,,
645.84103,1120,1102.86795,,,
646.02917,1125,1108.60445,,,
646.21733,1117,1114.26406,,,
646.40551,1103,1120.21928,,,
646.59369,1142,1128.52436,,,
646.7819,1135,1135.91866,,,
646.97011,1140,1144.28798,,,
647.15835,1151,1151.32649,,,
647.34659,1172,1159.55007,,,
647.53486,1162,1164.96267,,,
647.72314,1199,1172.10612,,,
647.91143,1167,1177.60579,,,
648.09974,1217,1183.72939,,,
648.28806,1188,1188.73046,,,
648.4764,1183,1195.03468,,,
648.66475,1216,1201.25303,,,
648.85312,1184,1207.99257,,,
649.0415,1182,1213.83873,,,
649.2299,1199,1221.02467,,,
649.41832,1152,1227.49032,,,
649.60674,1231,1234.74199,,,
649.79519,1192,1241.80061,,,
649.98365,1290,1249.53317,,,
650.17212,1275,1257.9193,,,
650.36061,1299,1266.31534,,,
650.54911,1300,1273.50164,,,
650.73763,1308,1282.07993,,,
650.92616,1327,1289.97264,,,
651.11471,1332,1297.62008,,,
651.30328,1283,1303.79936,,,
651.49185,1285,1311.21538,,,
651.68045,1278,1317.60706,,,
651.86906,1306,1325.12553,,,
652.05768,1295,1331.57313,,,
652.24632,1350,1339.42456,,,
652.43497,1336,1346.87259,,,
652.62364,1370,1355.46406,,,
652.81233,1368,1362.09151,,,
653.00103,1398,1370.93069,,,
653.18974,1383,1378.58393,,,
653.37847,1404,1386.24653,,,
653.56721,1391,1395.52651,,,
653.75597,1422,1403.42603,,,
653.94475,1421,1410.30719,,,
654.13354,1432,1417.14433,,,
654.32234,1435,1420.92707,,,
654.51116,1423,1426.8915,,,
654.7,1428,1430.25097,,,
654.88885,1409,1437.36997,,,
655.07771,1423,1443.27471,,,
655.26659,1443,1449.57895,,,
655.45548,1427,1457.2109,,,
655.64439,1455,1464.87497,,,
655.83332,1455,1472.2714,,,
656.02226,1489,1480.2536,,,
656.21121,1487,1485.85352,,,
656.40018,1519,1492.21595,,,
656.58917,1487,1497.17629,,,
656.77817,1536,1503.21837,,,
656.96718,1514,1508.09334,,,
657.15621,1519,1514.63702,,,
657.34526,1519,1519.99921,,,
657.53432,1557,1526.59426,,,
657.72339,1536,1532.42137,,,
657.91248,1550,1538.99402,,,
658.10159,1542,1544.41113,,,
658.29071,1514,1551.35462,,,
658.47984,1518,1556.87384,,,
658.66899,1536,1563.00136,,,
658.85816,1541,1569.57252,,,
659.04734,1583,1575.78138,,,
659.23653,1577,1582.29937,,,
659.42574,1620,1587.83155,,,
659.61497,1588,1592.20512,,,
659.80421,1617,1596.57793,,,
659.99347,1633,1600.48128,,,
660.18274,1592,1604.83295,,,
660.37202,1597,1608.11196,,,
660.56132,1627,1612.43034,,,
660.75064,1616,1614.99531,,,
660.93997,1647,1618.85189,,,
661.12932,1615,1622.66461,,,
661.31868,1644,1626.96752,,,
661.50805,1624,1629.92473,,,
661.69744,1640,1633.87771,,,
661.88685,1628,1636.65592,,,
662.07627,1646,1639.62776,,,
662.26571,1630,1641.21199,,,
662.45516,1647,1645.2331,,,
662.64462,1647,1648.12175,,,
662.8341,1668,1650.83984,,,
663.0236,1631,1653.83997,,,
663.21311,1658,1654.73395,,,
663.40264,1663,1656.2955,,,
663.59218,1641,1657.384,,,
663.78174,1657,1658.52246,,,
663.97131,1642,1660.28374,,,
664.16089,1653,1661.81343,,,
664.35049,1689,1664.81839,,,
664.54011,1659,1665.95744,,,
664.72974,1674,1668.61279,,,
664.91939,1666,1670.99234,,,
665.10905,1672,1671.64092,,,
665.29873,1648,1673.39138,,,
665.48842,1694,1675.86577,,,
665.67813,1675,1677.33357,,,
665.86785,1664,1679.37342,,,
666.05758,1670,1680.65562,,,
666.24734,1674,1682.21976,,,
666.4371,1681,1682.6532,,,
666.62688,1694,1683.73845,,,
666.81668,1685,1684.40087,,,
667.00649,1727,1685.24272,,,
667.19632,1679,1685.74482,,,
667.38616,1690,1685.6657,,,
667.57602,1704,1686.40236,,,
667.76589,1679,1688.53023,,,
667.95578,1711,1687.8098,,,
668.14568,1677,1688.35949,,,
668.3356,1695,1688.66661,,,
668.52553,1684,1688.62581,,,
668.71548,1694,1688.3864,,,
668.90544,1688,1687.89055,,,
669.09542,1674,1687.08956,,,
669.28541,1700,1687.37999,,,
669.47542,1671,1686.7047,,,
669.66544,1693,1686.719,,,
669.85548,1708,1686.63349,,,
670.04553,1666,1686.20497,,,
670.2356,1660,1684.45052,,,
670.42568,1674,1684.48198,,,
670.61578,1680,1683.84654,,,
670.80589,1667,1682.69388,,,
670.99602,1679,1681.56259,,,
671.18616,1693,1680.25104,,,
671.37632,1682,1679.46214,,,
671.56649,1678,1678.67247,,,
671.75668,1684,1677.48384,,,
671.94688,1673,1677.8012,,,
672.1371,1705,1675.97701,,,
672.32733,1674,1675.0169,,,
672.51758,1640,1674.11622,,,
672.70784,1692,1673.44302,,,
672.89812,1670,1673.11373,,,
673.08842,1679,1671.62303,,,
673.27872,1662,1670.85275,,,
673.46905,1677,1669.64649,,,
673.65939,1663,1668.27704,,,
673.84974,1676,1666.91993,,,
674.04011,1672,1664.51886,,,
674.23049,1672,1663.03477,,,
674.42089,1658,1660.7303,,,
674.6113,1646,1659.02471,,,
674.80173,1656,1658.4883,,,
674.99218,1670,1656.13758,,,
675.18263,1650,1653.86974,,,
675.37311,1649,1651.9651,,,
675.5636,1648,1649.70321,,,
675.7541,1645,1646.41645,,,
675.94462,1648,1643.63456,,,
676.13515,1630,1640.99601,,,
676.3257,1637,1638.30825,,,
676.51627,1637,1634.86278,,,
676.70684,1626,1632.12745,,,
676.89744,1650,1628.80217,,,
677.08805,1628,1626.93846,,,
677.27867,1638,1623.40323,,,
677.46931,1600,1619.42203,,,
677.65996,1614,1617.25206,,,
677.85063,1615,1614.54964,,,
678.04132,1602,1610.94591,,,
678.23202,1599,1607.5399,,,
678.42273,1609,1604.8332,,,
678.61346,1598,1601.95721,,,
678.8042,1614,1598.48674,,,
678.99496,1606,1595.18775,,,
679.18574,1601,1592.01277,,,
679.37653,1598,1589.12986,,,
679.56733,1570,1584.59113,,,
679.75815,1583,1581.51174,,,
679.94899,1563,1578.5936,,,
680.13984,1552,1574.78135,,,
680.3307,1560,1570.90396,,,
680.52158,1574,1567.25871,,,
680.71248,1562,1563.56953,,,
680.90338,1567,1560.43451,,,
681.09431,1554,1556.25081,,,
681.28525,1572,1552.72647,,,
681.4762,1551,1549.2931,,,
681.66717,1556,1545.70908,,,
681.85816,1536,1541.99153,,,
682.04916,1561,1538.54221,,,
682.24017,1536,1534.97499,,,
682.4312,1519,1531.27908,,,
682.62225,1509,1526.83633,,,
682.81331,1545,1523.44209,,,
683.00438,1519,1519.42558,,,
683.19548,1505,1515.58495,,,
683.38658,1490,1512.71839,,,
683.5777,1519,1508.46248,,,
683.76884,1509,1505.40076,,,
683.95999,1504,1501.31079,,,
684.15115,1476,1497.08811,,,
684.34233,1516,1493.3926,,,
684.53353,1473,1488.14437,,,
684.72474,1478,1485.075,,,
684.91596,1487,1481.07497,,,
685.1072,1487,1476.56334,,,
685.29846,1477,1472.88389,,,
685.48973,1474,1469.74296,,,
685.68102,1456,1465.4363,,,
685.87232,1471,1461.72165,,,
686.06363,1453,1458.36948,,,
686.25496,1447,1456.34463,,,
686.44631,1437,1452.92831,,,
686.63767,1466,1450.08494,,,
686.82905,1437,1446.76745,,,
687.02044,1452,1442.17538,,,
687.21184,1416,1437.9318,,,
687.40326,1452,1430.99724,,,
687.5947,1417,1424.30019,,,
687.78615,1422,1418.31704,,,
687.97762,1409,1412.06132,,,
688.1691,1380,1405.95882,,,
688.3606,1412,1400.01624,,,
688.55211,1386,1395.04689,,,
688.74363,1414,1389.87966,,,
688.93517,1418,1384.05887,,,
689.12673,1401,1378.5074,,,
689.3183,1429,1374.55906,,,
689.50989,1368,1368.99271,,,
689.70149,1375,1364.52665,,,
689.89311,1376,1360.09072,,,
690.08474,1349,1355.94496,,,
690.27638,1338,1351.75356,,,
690.46805,1362,1347.51879,,,
690.65972,1345,1342.90256,,,
690.85142,1314,1338.79614,,,
691.04312,1277,1334.03504,,,
691.23484,1293,1329.91352,,,
691.42658,1268,1325.80545,,,
691.61833,1250,1322.66919,,,
691.8101,1311,1318.443,,,
692.00188,1271,1315.97755,,,
692.19368,1343,1312.96879,,,
692.38549,1327,1310.17647,,,
692.57732,1345,1306.3967,,,
692.76916,1338,1303.37996,,,
692.96102,1324,1299.74724,,,
693.15289,1304,1296.71947,,,
693.34478,1301,1293.8007,,,
693.53668,1302,1291.21894,,,
693.7286,1326,1289.24841,,,
693.92053,1293,1286.92022,,,
694.11248,1281,1284.80482,,,
694.30444,1297,1283.84869,,,
694.49642,1265,1280.38551,,,
694.68841,1274,1277.29618,,,
694.88042,1268,1274.08034,,,
695.07244,1263,1270.90036,,,
695.26448,1265,1267.77599,,,
695.45653,1263,1265.00888,,,
695.6486,1265,1261.9704,,,
695.84068,1276,1257.63725,,,
696.03278,1253,1252.85705,,,
696.22489,1244,1247.84679,,,
696.41702,1244,1242.14313,,,
696.60916,1259,1235.86838,,,
696.80132,1219,1230.9949,,,
696.99349,1200,1224.03658,,,
697.18568,1230,1219.97064,,,
697.37788,1235,1215.44452,,,
697.5701,1218,1211.86654,,,
697.76233,1230,1207.5023,,,
697.95458,1178,1202.60026,,,
698.14684,1203,1196.95232,,,
698.33912,1163,1192.95583,,,
698.53142,1166,1189.04804,,,
698.72372,1185,1186.52937,,,
698.91605,1164,1182.51516,,,
699.10839,1156,1178.81383,,,
699.30074,1184,1175.89701,,,
699.49311,1181,1172.08376,,,
699.68549,1192,1169.08571,,,
699.87789,1167,1165.38248,,,
700.0703,1151,1161.91126,,,
700.26273,1162,1158.89218,,,
700.45518,1156,1155.31593,,,
700.64764,1168,1152.3213,,,
700.84011,1138,1149.39423,,,
701.0326,1151,1146.49745,,,
701.2251,1139,1143.98935,,,
701.41762,1124,1140.98204,,,
701.61015,1125,1139.34671,,,
701.8027,1149,1135.84779,,,
701.99527,1120,1132.21822,,,
702.18785,1121,1128.58033,,,
702.38044,1109,1125.96247,,,
702.57305,1135,1122.79809,,,
702.76567,1149,1120.7284,,,
702.95831,1165,1116.397,,,
703.15097,1112,1112.5281,,,
703.34364,1112,1107.69136,,,
703.53632,1093,1102.86421,,,
703.72902,1116,1097.50144,,,
703.92173,1096,1092.97764,,,
704.11446,1087,1087.60973,,,
704.30721,1086,1083.48943,,,
704.49997,1065,1078.5992,,,
704.69274,1082,1074.43525,,,
704.88553,1069,1070.20859,,,
705.07834,1054,1065.03205,,,
705.27116,1071,1060.77268,,,
705.46399,1055,1056.57467,,,
705.65684,1068,1051.99035,,,
705.8497,1048,1046.75288,,,
706.04258,1024,1041.72432,,,
706.23548,1039,1037.0113,,,
706.42839,1007,1032.46286,,,
706.62131,1028,1028.45732,,,
706.81425,1007,1024.12012,,,
707.00721,1034,1019.53519,,,
707.20018,1006,1015.07708,,,
707.39316,1007,1010.48773,,,
707.58616,980,1006.28481,,,
707.77918,1000,1003.3239,,,
707.97221,1006,1001.44619,,,
708.16525,995,997.96818,,,
708.35831,990,994.87587,,,
708.55139,1026,991.0402,,,
708.74448,975,988.55464,,,
708.93759,989,985.56914,,,
709.13071,971,982.59195,,,
709.32384,995,979.54463,,,
709.51699,986,975.89585,,,
709.71016,965,973.31455,,,
709.90334,980,970.2374,,,
710.09653,959,966.92818,,,
710.28974,949,964.0034,,,
710.48297,976,961.24669,,,
710.67621,972,958.62459,,,
710.86947,982,955.95846,,,
711.06274,964,953.24062,,,
711.25602,943,950.20401,,,
711.44932,921,947.57578,,,
711.64264,957,945.21908,,,
711.83597,940,942.50995,,,
712.02932,937,940.15618,,,
712.22268,929,937.18263,,,
712.41605,945,934.25944,,,
712.60944,925,930.72011,,,
712.80285,914,927.71777,,,
712.99627,923,924.31931,,,
713.18971,914,920.84835,,,
713.38316,924,917.93812,,,
713.57663,906,916.22021,,,
713.77011,908,912.35808,,,
713.9636,902,909.15579,,,
714.15711,907,905.70199,,,
714.35064,910,903.17892,,,
714.54418,894,900.81211,,,
714.73774,902,897.08476,,,
714.93131,898,894.23221,,,
715.1249,907,891.32492,,,
715.3185,891,887.88217,,,
715.51212,906,885.18395,,,
715.70575,895,883.36057,,,
715.89939,874,881.14909,,,
716.09306,902,878.0424,,,
716.28673,856,875.25776,,,
716.48042,864,872.07971,,,
716.67413,852,869.94956,,,
716.86785,866,866.87266,,,
717.06159,860,863.35491,,,
717.25534,858,860.18313,,,
717.44911,848,858.07332,,,
717.64289,845,855.31906,,,
717.83669,865,851.87388,,,
718.0305,859,849.19126,,,
718.22433,834,846.08838,,,
718.41817,830,842.30864,,,
718.61203,854,839.72228,,,
718.8059,847,836.74969,,,
718.99979,838,833.57261,,,
719.19369,831,830.68484,,,
719.38761,818,828.22193,,,
719.58154,844,825.32535,,,
719.77549,832,822.46896,,,
719.96945,813,819.68285,,,
720.16343,818,818.15362,,,
720.35742,820,815.7284,,,
720.55143,787,813.22811,,,
720.74545,812,811.2345,,,
720.93949,831,809.69979,,,
721.13354,802,808.34402,,,
721.32761,789,805.76287,,,
721.52169,786,803.00036,,,
721.71579,802,800.36239,,,
721.9099,817,798.15905,,,
722.10403,800,795.84901,,,
722.29817,781,793.39213,,,
722.49233,783,790.54844,,,
722.6865,795,788.4522,,,
722.88069,778,787.19398,,,
723.07489,783,785.23206,,,
723.26911,821,782.73338,,,
723.46335,766,780.1032,,,
723.65759,780,778.76174,,,
723.85186,782,777.55895,,,
724.04614,779,776.31217,,,
724.24043,770,774.59503,,,
724.43474,770,772.75449,,,
724.62906,779,771.89164,,,
724.8234,777,770.27027,,,
725.01775,746,768.96299,,,
725.21212,762,767.15425,,,
725.40651,786,765.62864,,,
725.6009,766,762.4975,,,
725.79532,730,760.64543,,,
725.98975,753,759.05228,,,
726.18419,751,757.17199,,,
726.37865,766,755.09411,,,
726.57312,751,752.84591,,,
726.76761,751,750.79125,,,
726.96212,751,749.23595,,,
727.15663,757,747.35851,,,
727.35117,764,744.59308,,,
727.54572,737,742.65286,,,
727.74028,729,740.90077,,,
727.93486,751,738.20768,,,
728.12946,748,736.77168,,,
728.32406,750,736.19185,,,
728.51869,733,732.59197,,,
728.71333,724,729.32562,,,
728.90798,717,727.06027,,,
729.10265,726,724.56169,,,
729.29734,716,722.30651,,,
729.49204,708,719.96802,,,
729.68675,724,718.2283,,,
729.88148,693,715.33989,,,
730.07622,712,711.73066,,,
730.27098,704,708.67186,,,
730.46576,724,706.96453,,,
730.66055,704,704.77701,,,
730.85535,717,700.43983,,,
731.05017,700,697.84149,,,
731.24501,690,694.95889,,,
731.43986,687,692.37849,,,
731.63472,693,689.69046,,,
731.8296,692,686.69182,,,
732.0245,687,684.52438,,,
732.21941,697,682.32952,,,
732.41433,667,679.50493,,,
732.60927,668,675.82908,,,
732.80423,680,672.10981,,,
732.9992,636,668.70486,,,
733.19418,640,666.56312,,,
733.38918,687,664.63716,,,
733.5842,691,662.46461,,,
733.77923,660,659.59881,,,
733.97427,664,656.2331,,,
734.16933,644,653.88419,,,
734.36441,642,651.09559,,,
734.5595,626,648.31853,,,
734.7546,662,645.87094,,,
734.94972,655,642.49836,,,
735.14486,650,639.22458,,,
735.34001,628,635.5464,,,
735.53518,623,632.6561,,,
735.73036,657,630.23729,,,
735.92555,617,627.37034,,,
736.12076,620,624.52726,,,
736.31599,623,621.64649,,,
736.51123,610,618.73601,,,
736.70649,618,615.83205,,,
736.90176,586,612.95644,,,
737.09704,588,609.56762,,,
737.29234,617,606.87057,,,
737.48766,622,603.36132,,,
737.68299,616,599.59854,,,
737.87834,631,596.58581,,,
738.0737,589,592.54334,,,
738.26907,584,587.5862,,,
738.46446,574,584.82394,,,
738.65987,586,583.58753,,,
738.85529,595,580.73823,,,
739.05073,568,578.4083,,,
739.24618,570,574.99354,,,
739.44165,557,571.95619,,,
739.63713,558,568.51972,,,
739.83262,554,565.83014,,,
740.02814,566,563.65904,,,
740.22366,572,560.16505,,,
740.4192,568,555.83094,,,
740.61476,532,551.98963,,,
740.81033,560,549.57129,,,
741.00592,544,545.03366,,,
741.20152,533,541.74174,,,
741.39714,527,538.99336,,,
741.59277,530,535.34198,,,
741.78842,527,532.41706,,,
741.98408,540,527.64457,,,
742.17975,529,524.4987,,,
742.37545,527,520.80928,,,
742.57115,536,517.25706,,,
742.76688,524,513.78738,,,
742.96261,512,511.72566,,,
743.15836,543,507.96496,,,
743.35413,518,503.96673,,,
743.54991,472,499.72258,,,
743.74571,494,496.46613,,,
743.94152,478,493.27611,,,
744.13735,492,489.67675,,,
744.33319,473,485.82179,,,
744.52905,463,481.61123,,,
744.72492,469,477.89268,,,
744.92081,442,473.1808,,,
745.11671,481,469.81012,,,
745.31263,490,466.3504,,,
745.50856,468,462.94691,,,
745.70451,454,456.50207,,,
745.90047,489,452.7529,,,
746.09645,450,449.45111,,,
746.29244,431,445.43673,,,
746.48845,445,440.71662,,,
746.68447,425,436.53048,,,
746.88051,452,431.90503,,,
747.07656,390,427.82251,,,
747.27263,431,423.66396,,,
747.46872,434,419.83481,,,
747.66481,429,417.01094,,,
747.86093,399,413.41494,,,
748.05705,415,410.31738,,,
748.2532,417,408.42155,,,
748.44936,414,405.61564,,,
748.64553,390,401.60078,,,
748.84172,396,397.48837,,,
749.03792,381,393.25679,,,
749.23414,388,389.23289,,,
749.43037,384,384.92351,,,
749.62662,363,380.78321,,,
749.82288,389,377.00935,,,
750.01916,353,372.32599,,,
750.21546,360,367.82829,,,
750.41176,354,363.28227,,,
750.60809,425,360.23749,,,
750.80443,367,357.15874,,,
751.00078,335,355.05839,,,
751.19715,344,352.84661,,,
751.39353,360,349.24739,,,
751.58993,344,346.35518,,,
751.78634,356,342.88686,,,
751.98277,354,340.89284,,,
752.17922,350,337.87674,,,
752.37568,340,334.76928,,,
752.57215,317,331.87116,,,
752.76864,334,330.38873,,,
752.96514,306,327.76323,,,
753.16166,297,324.83954,,,
753.3582,306,323.72486,,,
753.55475,299,321.49095,,,
753.75131,323,319.13756,,,
753.94789,313,317.17726,,,
754.14448,323,314.91599,,,
754.34109,318,314.00621,,,
754.53772,303,311.61936,,,
754.73436,296,308.88901,,,
754.93101,298,307.44343,,,
755.12768,335,304.54114,,,
755.32436,362,302.35799,,,
755.52106,302,299.34673,,,
755.71778,293,299.10992,,,
755.91451,302,297.94408,,,
756.11125,273,294.98048,,,
756.30801,303,292.57272,,,
756.50479,298,290.71451,,,
756.70158,303,289.46166,,,
756.89838,286,288.85404,,,
757.0952,258,287.86949,,,
757.29204,302,286.45591,,,
757.48889,308,285.47143,,,
757.68575,262,282.21681,,,
757.88263,272,280.02097,,,
758.07953,303,278.60887,,,
758.27644,249,277.25772,,,
758.47336,289,276.02591,,,
758.6703,275,274.38209,,,
758.86726,271,273.64051,,,
759.06423,269,272.16687,,,
759.26121,229,271.21239,,,
759.45821,276,269.85288,,,
759.65523,270,268.21869,,,
759.85226,255,266.79658,,,
760.0493,271,264.2731,,,
760.24636,254,264.43317,,,
760.44344,278,265.44255,,,
760.64053,265,264.16816,,,
760.83763,248,261.62337,,,
761.03476,280,261.62235,,,
761.23189,274,260.51347,,,
761.42904,278,260.27618,,,
761.62621,246,260.04372,,,
761.82339,237,259.60194,,,
762.02058,251,259.06317,,,
762.21779,268,257.52533,,,
762.41502,249,257.08526,,,
762.61226,310,257.97318,,,
762.80952,303,256.89635,,,
763.00679,254,255.34334,,,
763.20407,239,255.41319,,,
763.40138,239,254.41614,,,
763.59869,242,254.94389,,,
763.79602,233,255.35779,,,
763.99337,248,254.78056,,,
764.19073,242,254.43489,,,
764.38811,254,253.02861,,,
764.5855,251,253.14816,,,
764.7829,236,252.14782,,,
764.98033,277,251.00605,,,
765.17776,228,250.18404,,,
765.37521,234,248.65659,,,
765.57268,260,248.25767,,,
765.77016,303,247.9643,,,
765.96766,232,246.33552,,,
766.16517,239,245.19586,,,
766.3627,239,244.35505,,,
766.56024,236,243.57304,,,
766.75779,252,242.23853,,,
766.95537,242,241.1759,,,
767.15295,247,239.6245,,,
767.35055,256,238.80475,,,
767.54817,222,237.14621,,,
767.7458,243,238.40524,,,
767.94345,271,240.24601,,,
768.14111,254,238.93703,,,
768.33879,238,238.3018,,,
768.53648,224,236.96838,,,
768.73419,212,236.31487,,,
768.93191,240,234.98267,,,
769.12965,230,234.22802,,,
769.3274,220,233.28041,,,
769.52517,208,233.37052,,,
769.72295,239,233.10834,,,
769.92075,228,232.33521,,,
770.11856,232,233.80847,,,
770.31639,239,232.4779,,,
770.51423,225,231.01513,,,
770.71209,207,231.66303,,,
770.90996,232,233.73786,,,
771.10785,250,234.15778,,,
771.30575,240,234.22542,,,
771.50367,248,234.27076,,,
771.7016,238,233.47546,,,
771.89955,216,234.10378,,,
772.09751,244,234.64828,,,
772.29549,239,235.2001,,,
772.49348,252,235.5115,,,
772.69149,220,235.09685,,,
772.88951,200,235.13937,,,
773.08755,264,235.74317,,,
773.2856,229,235.96122,,,
773.48367,253,236.52142,,,
773.68175,234,236.23989,,,
773.87985,248,235.7828,,,
774.07796,245,236.42037,,,
774.27609,248,236.02016,,,
774.47424,226,235.53299,,,
774.67239,236,234.37591,,,
774.87057,239,233.62919,,,
775.06875,204,232.35416,,,
775.26696,251,231.09826,,,
775.46518,264,231.1545,,,
775.66341,221,229.70063,,,
775.86166,221,228.30293,,,
776.05992,208,226.99801,,,
776.2582,223,227.01155,,,
776.45649,222,226.76024,,,
776.6548,248,226.71286,,,
776.85313,217,225.72926,,,
777.05147,208,224.21704,,,
777.24982,210,223.51168,,,
777.44819,228,222.55553,,,
777.64657,218,222.74428,,,
777.84497,221,220.38708,,,
778.04338,234,217.80265,,,
778.24181,237,219.13658,,,
778.44026,211,218.96233,,,
778.63872,223,219.02845,,,
778.83719,212,218.05137,,,
779.03568,197,217.88781,,,
779.23418,219,218.34886,,,
779.4327,208,218.97486,,,
779.63124,212,219.35761,,,
779.82979,226,219.77687,,,
780.02835,234,219.90115,,,
780.22693,239,218.53018,,,
780.42552,201,219.12442,,,
780.62413,237,220.90324,,,
780.82276,214,220.23726,,,
781.0214,233,220.82464,,,
781.22005,207,221.03248,,,
781.41872,205,220.71961,,,
781.61741,205,221.85384,,,
781.81611,228,222.46776,,,
782.01482,224,223.29172,,,
782.21355,225,224.05004,,,
782.41229,232,223.75821,,,
782.61105,209,223.96659,,,
782.80983,268,225.08884,,,
783.00862,260,224.80362,,,
783.20742,192,225.89619,,,
783.40624,207,227.57267,,,
783.60508,224,228.77039,,,
783.80393,246,229.40082,,,
784.00279,239,229.28956,,,
784.20167,220,229.1972,,,
784.40057,221,229.8284,,,
784.59948,208,229.31697,,,
784.7984,216,229.10243,,,
784.99734,232,228.97583,,,
785.1963,251,229.68305,,,
785.39527,236,229.78767,,,
785.59425,216,229.0754,,,
785.79326,263,229.69646,,,
785.99227,224,230.8809,,,
786.1913,222,231.41342,,,
786.39035,256,230.60819,,,
786.58941,207,229.83406,,,
786.78848,254,230.04048,,,
786.98757,220,230.41186,,,
787.18668,209,228.48373,,,
787.3858,244,229.7807,,,
787.58494,248,230.10231,,,
787.78409,207,227.72708,,,
787.98325,258,229.19135,,,
788.18243,228,230.11146,,,
788.38163,212,229.44848,,,
788.58084,198,228.55059,,,
788.78007,225,227.04426,,,
788.97931,239,227.48296,,,
789.17856,220,227.50074,,,
789.37783,212,227.39768,,,
789.57712,237,227.65693,,,
789.77642,229,227.42671,,,
789.97574,240,227.13568,,,
790.17507,221,226.76174,,,
790.37441,250,227.44071,,,
790.57378,242,226.8985,,,
790.77315,233,225.23969,,,
790.97254,187,225.99579,,,
791.17195,223,226.78328,,,
791.37137,242,226.46117,,,
791.57081,237,227.74871,,,
791.77026,197,227.13731,,,
791.96973,207,227.79522,,,
792.16921,284,228.16641,,,
792.3687,175,227.72389,,,
792.56822,208,227.97554,,,
792.76774,278,228.49249,,,
792.96728,212,226.65388,,,
793.16684,228,227.31853,,,
793.36641,212,226.86774,,,
793.566,228,225.56631,,,
793.7656,267,223.9675,,,
793.96522,228,223.92163,,,
794.16485,239,223.88156,,,
794.3645,225,222.99164,,,
794.56416,210,221.58681,,,
794.76384,207,221.59451,,,
794.96353,210,221.06132,,,
795.16324,226,220.94582,,,
795.36296,210,219.24954,,,
795.5627,239,220.33462,,,
795.76245,261,222.08594,,,
795.96222,232,221.51093,,,
796.162,192,219.94904,,,
796.36179,223,219.9038,,,
796.56161,202,220.3162,,,
796.76143,215,220.92371,,,
796.96128,218,219.63675,,,
797.16113,192,218.79957,,,
797.36101,201,220.43543,,,
797.5609,209,218.7532,,,
797.7608,205,219.40336,,,
797.96072,245,221.03959,,,
798.16065,214,219.95903,,,
798.3606,225,218.72618,,,
798.56056,239,218.01656,,,
798.76054,234,219.22748,,,
798.96053,205,221.054,,,
799.16054,218,221.42984,,,
799.36056,229,222.75039,,,
799.5606,239,223.72033,,,
799.76065,217,223.93271,,,
799.96072,229,224.30617,,,
800.1608,229,224.42239,,,
800.3609,270,225.03762,,,
800.56101,210,225.89669,,,
800.76114,178,226.6966,,,
800.96129,249,228.64799,,,
801.16144,238,230.30642,,,
801.36162,220,230.61132,,,
801.56181,225,232.41043,,,
801.76201,216,232.20999,,,
801.96223,240,232.93042,,,
802.16246,233,233.8229,,,
802.36271,232,233.68156,,,
802.56297,239,232.21448,,,
802.76325,184,232.32223,,,
802.96355,220,230.63587,,,
803.16385,253,230.85547,,,
803.36418,282,231.19013,,,
803.56452,256,231.1248,,,
803.76487,207,231.28229,,,
803.96524,228,231.67596,,,
804.16562,245,231.67284,,,
804.36602,228,232.2405,,,
804.56644,228,231.96756,,,
804.76687,239,231.7717,,,
804.96731,229,230.61143,,,
805.16777,239,229.70831,,,
805.36824,239,228.12492,,,
805.56873,213,229.10204,,,
805.76924,244,228.96707,,,
805.96976,234,227.56928,,,
806.17029,219,227.2041,,,
806.37084,221,226.95694,,,
806.5714,194,226.23704,,,
806.77198,236,226.04661,,,
806.97258,214,224.64713,,,
807.17319,206,224.58323,,,
807.37381,207,223.64758,,,
807.57445,256,223.14902,,,
807.77511,207,222.1215,,,
807.97577,261,221.08224,,,
808.17646,240,220.89168,,,
808.37716,204,219.89012,,,
808.57787,224,221.43066,,,
808.7786,231,222.07042,,,
808.97935,219,222.21516,,,
809.18011,198,221.65999,,,
809.38088,181,221.9641,,,
809.58167,214,222.04976,,,
809.78248,221,221.23421,,,
809.9833,232,221.25849,,,
810.18413,236,221.33006,,,
810.38498,264,222.01986,,,
810.58585,226,222.29464,,,
810.78673,204,222.48132,,,
810.98762,204,223.43034,,,
811.18853,236,223.97262,,,
811.38946,225,223.85021,,,
811.5904,223,224.40671,,,
811.79136,207,224.03393,,,
811.99233,237,225.12684,,,
812.19331,216,225.25858,,,
812.39431,241,224.77565,,,
812.59533,228,224.21165,,,
812.79636,258,225.92389,,,
812.9974,201,225.23529,,,
813.19846,198,225.80299,,,
813.39954,261,226.15912,,,
813.60063,214,225.45027,,,
813.80174,226,225.58139,,,
814.00286,192,225.58178,,,
814.20399,233,225.72754,,,
814.40514,224,225.62314,,,
814.60631,216,224.72389,,,
814.80749,249,223.50751,,,
815.00869,237,222.95164,,,
815.2099,229,223.16965,,,
815.41112,220,222.92938,,,
815.61236,238,224.35688,,,
815.81362,216,225.16621,,,
816.01489,221,223.33244,,,
816.21618,228,222.24383,,,
816.41748,238,222.60901,,,
816.6188,217,222.56882,,,
816.82013,217,223.12415,,,
817.02147,205,222.8804,,,
817.22283,213,223.67367,,,
817.42421,222,223.4247,,,
817.6256,222,224.34916,,,
817.82701,192,224.84885,,,
818.02843,223,226.24721,,,
818.22987,238,224.60391,,,
818.43132,232,223.10227,,,
818.63278,234,224.74452,,,
818.83427,225,224.71365,,,
819.03576,239,225.10718,,,
819.23728,224,224.1048,,,
819.4388,207,223.90661,,,
819.64034,207,223.67755,,,
819.8419,246,224.295,,,
820.04347,232,225.027,,,
820.24506,217,225.13704,,,
820.44666,239,225.07735,,,
820.64828,216,225.06347,,,
820.84991,200,225.56359,,,
821.05156,268,224.69827,,,
821.25322,245,223.81338,,,
821.4549,229,223.60787,,,
821.65659,234,224.25484,,,
821.8583,211,224.15953,,,
822.06002,218,224.54767,,,
822.26176,210,224.15058,,,
822.46351,223,224.10859,,,
822.66528,207,224.3165,,,
822.86706,207,222.91755,,,
823.06886,207,220.26664,,,
823.27067,256,221.15584,,,
823.4725,249,222.01137,,,
823.67434,207,221.91248,,,
823.8762,217,222.11504,,,
824.07807,212,222.71718,,,
824.27996,221,222.83732,,,
824.48186,233,222.50735,,,
824.68378,227,221.16161,,,
824.88571,186,220.89438,,,
825.08766,212,221.222,,,
825.28962,224,220.17058,,,
825.4916,224,219.81782,,,
825.69359,213,220.32746,,,
825.8956,213,219.18782,,,
826.09762,239,217.06609,,,
826.29966,248,218.22164,,,
826.50171,236,221.47408,,,
826.70378,220,222.18897,,,
826.90587,225,222.66108,,,
827.10796,206,222.49507,,,
827.31008,216,222.76242,,,
827.51221,207,222.05574,,,
827.71435,203,221.67544,,,
827.91651,259,220.98942,,,
828.11868,277,221.30032,,,
828.32087,186,219.00824,,,
828.52307,197,220.6462,,,
828.72529,223,221.71213,,,
828.92753,216,220.73546,,,
829.12977,191,221.35722,,,
829.33204,220,220.84491,,,
829.53432,222,221.35151,,,
829.73661,240,223.14845,,,
829.93892,200,224.09192,,,
830.14124,217,222.88802,,,
830.34358,256,222.44866,,,
830.54594,221,222.9019,,,
830.7483,214,223.07013,,,
830.95069,250,222.85769,,,
831.15309,272,222.26368,,,
831.3555,237,222.2176,,,
831.55793,143,223.76174,,,
831.76037,207,223.95889,,,
831.96283,221,223.53813,,,
832.16531,220,223.42796,,,
832.3678,210,222.81134,,,
832.5703,234,223.23024,,,
832.77282,238,222.87941,,,
832.97536,234,222.8245,,,
833.1779,196,223.67789,,,
833.38047,285,226.0725,,,
833.58305,207,224.04766,,,
833.78564,224,224.19708,,,
833.98825,256,224.98272,,,
834.19088,212,224.49251,,,
834.39352,245,223.28535,,,
834.59617,220,223.90432,,,
834.79884,185,224.01552,,,
835.00153,204,223.99803,,,
835.20423,232,223.25403,,,
835.40694,229,222.80228,,,
835.60967,209,223.60833,,,
835.81242,217,220.86303,,,
836.01518,217,220.60941,,,
836.21795,228,222.46912,,,
836.42074,238,223.79322,,,
836.62355,196,222.34347,,,
836.82637,232,220.98929,,,
837.0292,241,222.44486,,,
837.23205,239,222.2777,,,
837.43492,239,223.51788,,,
837.6378,212,223.37584,,,
837.84069,226,225.18841,,,
838.0436,207,226.56864,,,
838.24653,233,227.9369,,,
838.44947,207,227.79784,,,
838.65242,271,230.67524,,,
838.85539,205,230.30198,,,
839.05838,203,229.66106,,,
839.26138,238,231.70482,,,
839.4644,236,233.1593,,,
839.66743,198,233.60599,,,
839.87047,213,234.05214,,,
840.07353,237,233.79843,,,
840.27661,222,233.80833,,,
840.4797,226,234.29967,,,
840.68281,225,234.58371,,,
840.88593,323,234.64794,,,
841.08906,241,234.79155,,,
841.29221,206,233.27847,,,
841.49538,254,233.20111,,,
841.69856,332,234.14759,,,
841.90176,239,232.64226,,,
842.10497,195,232.75071,,,
842.30819,261,233.5797,,,
842.51143,212,233.5355,,,
842.71469,246,234.16589,,,
842.91796,201,233.54223,,,
843.12125,217,233.30898,,,
843.32455,212,232.59945,,,
843.52787,220,232.26696,,,
843.7312,206,231.02179,,,
843.93454,241,232.62862,,,
844.13791,270,232.58457,,,
844.34128,216,230.81796,,,
844.54467,188,230.72706,,,
844.74808,254,229.7612,,,
844.9515,233,228.17828,,,
845.15494,216,227.59094,,,
845.35839,217,226.99635,,,
845.56186,225,226.3945,,,
845.76534,229,225.78539,,,
845.96884,213,225.16902,,,
846.17235,212,224.5454,,,
846.37587,268,223.91452,,,
846.57942,233,223.27639,,,
846.78297,207,222.631,,,
846.98655,245,221.97835,,,
847.19013,224,221.31845,,,
847.39373,207,220.65129,,,
847.59735,235,219.97687,,,
847.80098,213,219.2952,,,
848.00463,226,218.60627,,,
848.20829,224,217.91008,,,
848.41197,217,217.20663,,,
848.61566,227,216.49593,,,
848.81937,230,215.77798,,,
849.02309,196,215.05277,,,
849.22683,180,214.3203,,,
849.43058,227,213.58057,,,
849.63435,201,212.83359,,,
849.83813,228,212.07935,,,
850.04193,207,211.31785,,,
