Wavelength,Raw_Spectrum,Smoothed_Spectrum,,,# Smoothing method: Savitzky-Golay
400.03188,309,306.29856,,,# Window length: 50 points
400.19923,282,306.98436,,,# Polynomial order: 2
400.36659,332,307.6394,,,
400.53396,319,308.26368,,,
400.70135,290,308.85719,,,
400.86876,301,309.41995,,,
401.03618,317,309.95194,,,
401.20361,336,310.45316,,,
401.37106,292,310.92363,,,
401.53853,317,311.36333,,,
401.70601,300,311.77228,,,
401.8735,310,312.15046,,,
402.04101,293,312.49787,,,
402.20854,303,312.81453,,,
402.37608,350,313.10042,,,
402.54363,334,313.35555,,,
402.7112,298,313.57992,,,
402.87879,329,313.77353,,,
403.04639,330,313.93637,,,
403.214,344,314.06845,,,
403.38163,282,314.16977,,,
403.54928,317,314.24033,,,
403.71694,306,314.28012,,,
403.88462,306,314.28915,,,
404.05231,312,314.26742,,,
404.22001,297,314.21493,,,
404.38773,301,314.43374,,,
404.55547,308,313.3794,,,
404.72322,289,313.66319,,,
404.89099,356,313.7411,,,
405.05877,304,312.25391,,,
405.22656,321,311.76586,,,
405.39437,317,311.13239,,,
405.5622,318,311.91481,,,
405.73004,271,311.02707,,,
405.8979,300,311.74206,,,
406.06577,321,310.41822,,,
406.23365,328,309.79356,,,
406.40155,304,308.46882,,,
406.56947,333,307.19645,,,
406.7374,296,307.54062,,,
406.90535,322,307.69827,,,
407.07331,303,306.8453,,,
407.24129,315,307.77639,,,
407.40928,330,309.6978,,,
407.57728,319,309.94645,,,
407.7453,303,309.41924,,,
407.91334,318,310.54692,,,
408.08139,284,310.64205,,,
408.24946,294,310.83463,,,
408.41754,294,310.72316,,,
408.58564,294,310.96985,,,
408.75375,305,310.03373,,,
408.92188,308,309.24392,,,
409.09002,304,307.80878,,,
409.25817,328,309.34427,,,
409.42635,303,307.96908,,,
409.59453,324,307.21282,,,
409.76273,298,307.32737,,,
409.93095,310,307.8607,,,
410.09918,276,306.58092,,,
410.26743,326,304.93157,,,
410.43569,313,304.29432,,,
410.60397,319,304.69263,,,
410.77226,327,304.98519,,,
410.94057,325,305.38628,,,
411.10889,324,305.12191,,,
411.27723,326,306.26798,,,
411.44558,297,305.68131,,,
411.61395,262,306.50764,,,
411.78233,336,307.27332,,,
411.95073,303,307.38492,,,
412.11914,276,307.3745,,,
412.28757,296,307.86047,,,
412.45601,289,307.12927,,,
412.62447,303,307.75372,,,
412.79294,271,307.44914,,,
412.96143,310,307.29527,,,
413.12993,312,306.34406,,,
413.29845,314,306.87658,,,
413.46698,281,306.09889,,,
413.63553,332,306.74593,,,
413.80409,334,306.37251,,,
413.97267,305,306.28438,,,
414.14126,292,306.10163,,,
414.30987,302,307.21817,,,
414.47849,342,306.89796,,,
414.64713,335,307.91812,,,
414.81578,313,307.99574,,,
414.98445,293,308.18247,,,
415.15314,320,308.38984,,,
415.32183,308,309.58239,,,
415.49055,284,310.32551,,,
415.65928,324,311.15343,,,
415.82802,288,310.29498,,,
415.99678,306,309.61963,,,
416.16555,322,310.89073,,,
416.33434,313,311.23706,,,
416.50314,313,310.10311,,,
416.67196,321,310.56497,,,
416.84079,280,309.80231,,,
417.00964,306,310.19432,,,
417.17851,297,308.38255,,,
417.34738,335,307.80971,,,
417.51628,288,307.26334,,,
417.68519,328,307.30809,,,
417.85411,307,305.71782,,,
418.02305,319,306.95189,,,
418.192,335,307.73041,,,
418.36097,316,306.53761,,,
418.52996,281,305.26888,,,
418.69895,288,305.34823,,,
418.86797,287,306.39874,,,
419.037,306,307.23987,,,
419.20604,310,308.21457,,,
419.3751,322,308.19353,,,
419.54418,290,309.12446,,,
419.71326,306,309.78342,,,
419.88237,309,309.55854,,,
420.05149,342,311.10768,,,
420.22062,298,310.64855,,,
420.38977,303,309.71739,,,
420.55894,303,309.7103,,,
420.72812,324,309.87293,,,
420.89731,285,309.65764,,,
421.06652,315,310.81986,,,
421.23574,286,310.59403,,,
421.40498,324,311.87282,,,
421.57424,320,310.6001,,,
421.74351,324,311.32146,,,
421.91279,308,310.92285,,,
422.08209,330,311.67193,,,
422.25141,284,310.15948,,,
422.42074,303,309.66029,,,
422.59008,346,308.99676,,,
422.75944,340,309.3538,,,
422.92882,304,308.61501,,,
423.09821,313,308.33414,,,
423.26761,320,306.82056,,,
423.43703,296,306.28035,,,
423.60647,307,305.80222,,,
423.77592,300,306.43084,,,
423.94538,296,306.03314,,,
424.11486,297,305.81497,,,
424.28436,271,305.2661,,,
424.45387,298,305.87821,,,
424.62339,331,305.79044,,,
424.79293,320,304.73309,,,
424.96249,308,303.81612,,,
425.13206,323,304.5257,,,
425.30164,285,303.14669,,,
425.47124,285,302.86969,,,
425.64086,249,301.37917,,,
425.81049,321,301.6741,,,
425.98013,293,301.34141,,,
426.1498,281,301.18723,,,
426.31947,277,300.36581,,,
426.48916,335,301.2266,,,
426.65887,318,301.20136,,,
426.82859,349,300.85085,,,
426.99832,303,302.11275,,,
427.16808,303,303.7402,,,
427.33784,288,303.51347,,,
427.50762,325,303.30241,,,
427.67742,311,304.4669,,,
427.84723,314,304.26542,,,
428.01705,289,304.51118,,,
428.1869,288,304.82213,,,
428.35675,293,305.19912,,,
428.52662,306,305.56672,,,
428.69651,303,304.23763,,,
428.86641,283,304.20084,,,
429.03633,319,304.40477,,,
429.20626,316,305.31416,,,
429.3762,282,305.00673,,,
429.54617,312,305.87379,,,
429.71614,304,304.61537,,,
429.88613,316,304.6226,,,
430.05614,293,302.16952,,,
430.22616,313,301.95891,,,
430.3962,316,299.80269,,,
430.56625,328,298.88321,,,
430.73632,297,297.56287,,,
430.9064,278,296.99388,,,
431.07649,303,296.93973,,,
431.24661,294,298.57671,,,
431.41673,280,298.65485,,,
431.58688,309,299.44393,,,
431.75703,321,298.87064,,,
431.9272,284,299.51326,,,
432.09739,306,300.04954,,,
432.26759,302,300.55725,,,
432.43781,292,300.20157,,,
432.60804,282,300.08548,,,
432.77829,278,299.20034,,,
432.94855,304,298.39267,,,
433.11883,282,298.19674,,,
433.28912,308,297.25813,,,
433.45943,276,297.37514,,,
433.62975,306,297.84729,,,
433.80009,283,295.61766,,,
433.97044,318,296.76869,,,
434.14081,271,296.86865,,,
434.31119,310,297.95015,,,
434.48159,304,297.39208,,,
434.652,348,297.75601,,,
434.82243,295,297.64685,,,
434.99287,299,298.01749,,,
435.16333,335,298.90487,,,
435.3338,309,298.5847,,,
435.50429,288,298.92568,,,
435.67479,298,298.97685,,,
435.84531,271,297.86265,,,
436.01584,298,298.8204,,,
436.18639,294,299.26408,,,
436.35695,285,299.54418,,,
436.52753,289,300.03977,,,
436.69812,292,300.40443,,,
436.86873,278,300.29869,,,
437.03935,306,300.66011,,,
437.20999,319,299.64679,,,
437.38065,298,299.91545,,,
437.55131,302,300.01574,,,
437.722,303,300.76013,,,
437.8927,291,300.31772,,,
438.06341,353,301.09305,,,
438.23414,270,300.54558,,,
438.40488,296,300.57276,,,
438.57564,274,299.28839,,,
438.74641,306,299.26451,,,
438.9172,296,299.15688,,,
439.088,320,300.13753,,,
439.25882,325,298.88996,,,
439.42966,280,298.69739,,,
439.6005,298,298.88523,,,
439.77137,299,300.57403,,,
439.94225,300,301.31874,,,
440.11314,326,302.27554,,,
440.28405,285,301.54124,,,
440.45497,318,301.61696,,,
440.62591,288,301.01527,,,
440.79687,301,300.61186,,,
440.96784,303,299.31367,,,
441.13882,310,299.3731,,,
441.30982,281,297.57689,,,
441.48083,320,297.61952,,,
441.65186,303,297.59422,,,
441.82291,284,295.77719,,,
441.99396,284,295.14202,,,
442.16504,288,295.09694,,,
442.33613,271,293.82874,,,
442.50723,288,295.68502,,,
442.67835,303,294.95606,,,
442.84949,300,295.90509,,,
443.02064,294,295.64541,,,
443.1918,291,296.107,,,
443.36298,303,295.84199,,,
443.53417,334,296.77349,,,
443.70538,306,297.46078,,,
443.87661,337,296.54866,,,
444.04785,265,295.72104,,,
444.2191,270,296.65152,,,
444.39037,266,296.69913,,,
444.56166,290,297.6459,,,
444.73296,285,297.36345,,,
444.90427,303,298.85207,,,
445.0756,285,298.64287,,,
445.24695,318,299.57369,,,
445.41831,273,299.74199,,,
445.58968,319,300.94235,,,
445.76107,284,299.5505,,,
445.93248,301,300.84077,,,
446.1039,348,300.33754,,,
446.27533,319,301.72294,,,
446.44678,303,302.19629,,,
446.61825,336,301.42547,,,
446.78973,300,300.5936,,,
446.96122,308,300.06773,,,
447.13273,272,300.1089,,,
447.30426,284,300.11337,,,
447.4758,287,300.00985,,,
447.64735,301,299.89225,,,
447.81892,285,299.47738,,,
447.99051,302,300.2374,,,
448.16211,314,300.07731,,,
448.33373,332,300.79904,,,
448.50536,274,299.35269,,,
448.677,303,299.36334,,,
448.84866,302,298.28044,,,
449.02034,305,298.53691,,,
449.19203,277,298.10827,,,
449.36374,304,297.43439,,,
449.53546,276,296.55435,,,
449.70719,303,297.40359,,,
449.87894,275,295.92206,,,
450.05071,335,295.79789,,,
450.22249,286,294.67539,,,
450.39429,335,294.27378,,,
450.5661,250,295.88004,,,
450.73792,271,296.22395,,,
450.90976,314,295.82949,,,
451.08162,297,296.63471,,,
451.25349,300,296.29711,,,
451.42538,295,297.15011,,,
451.59728,293,296.62905,,,
451.7692,289,296.57193,,,
451.94113,283,295.9279,,,
452.11307,304,296.03117,,,
452.28504,300,294.16136,,,
452.45701,309,293.85465,,,
452.629,318,294.62237,,,
452.80101,325,295.16476,,,
452.97303,275,294.50488,,,
453.14507,300,294.56212,,,
453.31712,272,294.50187,,,
453.48919,284,295.12082,,,
453.66127,309,294.23903,,,
453.83337,298,295.70674,,,
454.00548,270,294.70781,,,
454.1776,301,295.15409,,,
454.34975,301,293.69184,,,
454.5219,301,294.67977,,,
454.69408,292,293.82226,,,
454.86626,273,294.97207,,,
455.03846,291,294.48425,,,
455.21068,303,294.61698,,,
455.38291,301,295.15554,,,
455.55516,310,295.11692,,,
455.72742,279,295.69159,,,
455.8997,286,296.91015,,,
456.07199,276,296.08206,,,
456.2443,295,295.36556,,,
456.41662,282,294.39888,,,
456.58896,335,295.26345,,,
456.76131,303,294.87685,,,
456.93368,280,296.01726,,,
457.10606,311,297.09092,,,
457.27846,297,299.72826,,,
457.45087,301,299.14857,,,
457.6233,307,299.21473,,,
457.79574,289,298.25498,,,
457.9682,312,298.5734,,,
458.14067,256,297.54409,,,
458.31316,308,297.85359,,,
458.48566,285,296.58887,,,
458.65818,322,295.83485,,,
458.83071,304,295.32408,,,
459.00326,324,295.00569,,,
459.17583,312,294.49025,,,
459.3484,282,292.94634,,,
459.521,271,292.21697,,,
459.69361,297,292.48031,,,
459.86623,302,292.59956,,,
460.03887,284,292.89069,,,
460.21152,252,291.71943,,,
460.38419,317,290.68149,,,
460.55687,312,290.14336,,,
460.72957,316,290.72418,,,
460.90228,274,290.20034,,,
461.07501,313,292.14322,,,
461.24775,271,291.70686,,,
461.42051,282,291.06242,,,
461.59329,234,291.27045,,,
461.76608,288,291.98922,,,
461.93888,289,292.97425,,,
462.1117,294,294.28175,,,
462.28453,256,295.11285,,,
462.45738,327,296.39996,,,
462.63024,274,294.63225,,,
462.80312,296,295.133,,,
462.97602,310,295.20748,,,
463.14893,306,296.0593,,,
463.32185,303,296.0108,,,
463.49479,303,298.32377,,,
463.66774,320,300.48579,,,
463.84071,312,300.6363,,,
464.0137,292,300.35358,,,
464.18669,296,300.90507,,,
464.35971,302,302.34939,,,
464.53274,324,302.5688,,,
464.70578,330,301.86512,,,
464.87884,304,303.70348,,,
465.05192,282,304.4121,,,
465.22501,304,306.14909,,,
465.39811,274,305.17119,,,
465.57123,328,306.44384,,,
465.74436,316,305.18974,,,
465.91751,322,303.85961,,,
466.09068,294,300.99164,,,
466.26386,288,300.72045,,,
466.43705,282,300.04745,,,
466.61026,277,299.13989,,,
466.78349,282,296.90883,,,
466.95673,329,296.9149,,,
467.12998,305,295.97463,,,
467.30325,297,294.80212,,,
467.47654,310,293.91565,,,
467.64984,330,293.16875,,,
467.82315,274,292.37851,,,
467.99648,266,291.75963,,,
468.16982,302,291.83696,,,
468.34319,303,291.87719,,,
468.51656,299,291.05037,,,
468.68995,272,290.49754,,,
468.86336,292,289.8163,,,
469.03678,284,289.80618,,,
469.21021,255,290.28576,,,
469.38366,287,289.89171,,,
469.55713,255,289.08236,,,
469.73061,302,288.7141,,,
469.9041,262,287.75467,,,
470.07761,303,288.13226,,,
470.25114,316,288.99436,,,
470.42468,317,289.23874,,,
470.59823,276,289.66878,,,
470.7718,286,289.89259,,,
470.94539,297,289.09862,,,
471.11899,300,288.37231,,,
471.29261,294,286.97701,,,
471.46624,271,288.59564,,,
471.63988,296,289.61476,,,
471.81354,302,290.68015,,,
471.98722,296,291.22324,,,
472.16091,296,292.61145,,,
472.33462,291,292.73721,,,
472.50834,286,293.11733,,,
472.68207,281,293.93277,,,
472.85582,290,295.05139,,,
473.02959,283,295.92453,,,
473.20337,293,295.78412,,,
473.37717,296,296.39625,,,
473.55098,292,296.36091,,,
473.72481,301,294.77968,,,
473.89865,294,294.47673,,,
474.0725,302,292.12662,,,
474.24637,292,292.33092,,,
474.42026,303,290.99099,,,
474.59416,280,292.02492,,,
474.76808,313,292.68402,,,
474.94201,283,293.95545,,,
475.11596,282,292.37052,,,
475.28992,310,292.76303,,,
475.46389,303,292.79164,,,
475.63789,333,293.34612,,,
475.81189,283,294.07463,,,
475.98591,282,293.49009,,,
476.15995,271,292.47052,,,
476.334,303,293.54407,,,
476.50807,302,293.81646,,,
476.68215,292,293.10693,,,
476.85625,269,293.29364,,,
477.03036,286,293.73159,,,
477.20449,277,293.41808,,,
477.37863,281,293.34855,,,
477.55279,286,292.88611,,,
477.72696,277,292.93603,,,
477.90115,289,293.22132,,,
478.07535,310,292.21328,,,
478.24957,297,292.29496,,,
478.4238,335,292.18725,,,
478.59805,297,291.9595,,,
478.77231,309,291.8699,,,
478.94658,266,292.56907,,,
479.12088,292,292.68344,,,
479.29518,275,292.3304,,,
479.46951,334,292.06881,,,
479.64384,277,291.52409,,,
479.8182,299,292.10773,,,
479.99256,285,290.65159,,,
480.16695,271,291.01282,,,
480.34135,288,291.40719,,,
480.51576,329,291.34334,,,
480.69019,266,289.45371,,,
480.86463,285,289.55689,,,
481.03909,321,288.87608,,,
481.21356,288,289.12696,,,
481.38805,271,288.28155,,,
481.56255,287,288.23332,,,
481.73707,285,287.65791,,,
481.9116,289,287.99615,,,
482.08615,279,287.70754,,,
482.26071,271,286.61881,,,
482.43529,311,286.48166,,,
482.60988,285,286.93814,,,
482.78449,284,286.71381,,,
482.95911,297,287.39124,,,
483.13375,283,287.41473,,,
483.30841,265,287.11004,,,
483.48307,256,286.19545,,,
483.65776,304,285.57129,,,
483.83246,272,284.44866,,,
484.00717,276,285.21645,,,
484.1819,263,284.16739,,,
484.35664,330,283.71929,,,
484.5314,310,283.44658,,,
484.70617,262,283.01037,,,
484.88096,271,282.07173,,,
485.05577,321,283.24356,,,
485.23059,288,281.9048,,,
485.40542,319,281.56067,,,
485.58027,281,281.88824,,,
485.75513,293,283.29813,,,
485.93001,280,283.0547,,,
486.10491,286,284.9115,,,
486.27981,253,285.44943,,,
486.45474,273,285.56511,,,
486.62968,288,285.37582,,,
486.80463,264,285.76255,,,
486.9796,262,285.78097,,,
487.15458,271,285.07343,,,
487.32958,282,284.13402,,,
487.5046,270,285.14698,,,
487.67963,296,284.38411,,,
487.85467,274,282.80749,,,
488.02973,288,282.16009,,,
488.20481,288,282.22721,,,
488.37989,287,281.25389,,,
488.555,297,280.60187,,,
488.73012,302,279.49072,,,
488.90525,285,281.74702,,,
489.0804,274,281.83384,,,
489.25557,308,280.51261,,,
489.43075,284,279.69524,,,
489.60594,311,281.651,,,
489.78115,298,282.90054,,,
489.95638,319,283.78992,,,
490.13162,253,283.12143,,,
490.30687,288,285.19889,,,
490.48214,226,285.47734,,,
490.65743,261,285.98931,,,
490.83273,277,285.6671,,,
491.00804,276,286.58495,,,
491.18337,242,287.36877,,,
491.35872,293,287.17903,,,
491.53408,297,287.10861,,,
491.70945,308,287.03975,,,
491.88484,256,287.08698,,,
492.06025,303,286.62622,,,
492.23567,316,287.21441,,,
492.4111,273,288.46008,,,
492.58655,296,288.99583,,,
492.76202,303,289.00367,,,
492.9375,297,288.78819,,,
493.11299,299,289.48927,,,
493.2885,252,289.45254,,,
493.46403,312,289.83893,,,
493.63957,318,290.18324,,,
493.81513,312,291.56592,,,
493.9907,271,291.1171,,,
494.16628,262,292.89402,,,
494.34188,309,293.63114,,,
494.5175,334,294.62439,,,
494.69313,255,294.2683,,,
494.86878,302,294.88577,,,
495.04444,303,293.84437,,,
495.22011,298,293.25364,,,
495.3958,271,293.48855,,,
495.57151,288,292.86097,,,
495.74723,296,290.74176,,,
495.92297,286,290.48282,,,
496.09872,291,289.63779,,,
496.27448,297,289.60819,,,
496.45027,302,287.27552,,,
496.62606,293,286.45965,,,
496.80187,244,287.11178,,,
496.9777,275,286.40603,,,
497.15354,292,285.46705,,,
497.3294,300,285.94582,,,
497.50527,280,285.72156,,,
497.68116,314,285.78733,,,
497.85706,286,284.15391,,,
498.03297,273,284.73979,,,
498.2089,269,284.75981,,,
498.38485,309,284.9614,,,
498.56081,262,283.1041,,,
498.73679,285,281.23002,,,
498.91278,303,280.67433,,,
499.08879,284,281.96283,,,
499.26481,282,281.18141,,,
499.44085,268,282.14238,,,
499.6169,276,281.66921,,,
499.79297,256,282.05778,,,
499.96905,278,281.25312,,,
500.14515,288,280.33077,,,
500.32126,270,280.3174,,,
500.49738,294,280.43978,,,
500.67353,280,280.60024,,,
500.84968,306,281.28476,,,
501.02586,303,282.62441,,,
501.20204,270,281.73071,,,
501.37825,271,281.04113,,,
501.55446,301,281.36479,,,
501.73069,261,280.79035,,,
501.90694,278,281.23122,,,
502.0832,270,280.79762,,,
502.25948,276,282.01644,,,
502.43577,256,281.64194,,,
502.61208,284,280.97243,,,
502.7884,277,280.51587,,,
502.96474,309,281.71798,,,
503.1411,301,280.92956,,,
503.31746,307,280.51088,,,
503.49385,278,282.18404,,,
503.67024,269,283.05984,,,
503.84666,251,283.94679,,,
504.02308,303,283.54407,,,
504.19953,273,283.86876,,,
504.37598,286,283.9058,,,
504.55246,309,283.55902,,,
504.72895,291,284.31729,,,
504.90545,278,285.39068,,,
505.08197,282,286.24275,,,
505.2585,271,285.55825,,,
505.43505,253,286.4772,,,
505.61161,324,287.13901,,,
505.78819,268,287.49367,,,
505.96478,256,286.74887,,,
506.14139,303,287.00999,,,
506.31801,281,286.23421,,,
506.49465,293,286.92308,,,
506.67131,274,287.094,,,
506.84797,305,287.23115,,,
507.02466,306,286.45922,,,
507.20136,296,286.9887,,,
507.37807,282,286.06954,,,
507.5548,305,285.73329,,,
507.73154,319,285.63238,,,
507.9083,270,286.12818,,,
508.08508,278,286.15776,,,
508.26186,274,285.95098,,,
508.43867,303,284.6329,,,
508.61549,286,285.45779,,,
508.79232,271,284.47772,,,
508.96917,303,284.07701,,,
509.14603,276,284.49032,,,
509.32291,241,284.65746,,,
509.49981,266,284.20786,,,
509.67672,305,284.1759,,,
509.85364,280,283.45799,,,
510.03058,290,283.13608,,,
510.20753,267,283.67485,,,
510.3845,303,283.80303,,,
510.56149,303,282.34567,,,
510.73849,301,283.45695,,,
510.9155,265,282.86459,,,
511.09253,269,283.26947,,,
511.26957,271,282.87587,,,
511.44663,276,283.7154,,,
511.62371,253,284.99452,,,
511.8008,292,285.07511,,,
511.9779,309,284.73589,,,
512.15502,301,286.36909,,,
512.33216,293,288.43555,,,
512.50931,282,288.99053,,,
512.68647,278,289.71021,,,
512.86365,293,289.86339,,,
513.04085,270,290.63847,,,
513.21806,302,291.32071,,,
513.39528,297,291.32445,,,
513.57252,297,292.53926,,,
513.74977,292,292.03617,,,
513.92704,302,290.69761,,,
514.10433,293,289.55761,,,
514.28163,306,290.67127,,,
514.45895,270,290.8862,,,
514.63628,313,291.15855,,,
514.81362,274,290.90806,,,
514.99098,312,290.5515,,,
515.16836,271,290.7665,,,
515.34575,308,291.06381,,,
515.52315,288,290.22,,,
515.70057,296,289.70758,,,
515.87801,286,289.87116,,,
516.05546,274,289.32981,,,
516.23292,308,287.73148,,,
516.4104,313,287.30619,,,
516.5879,271,286.92777,,,
516.76541,272,286.84337,,,
516.94294,273,286.82369,,,
517.12048,270,286.11289,,,
517.29803,281,284.99092,,,
517.4756,289,285.75082,,,
517.65319,276,284.68951,,,
517.83079,281,284.14755,,,
518.00841,270,283.5093,,,
518.18604,302,283.55573,,,
518.36368,292,282.10863,,,
518.54134,306,281.62989,,,
518.71902,268,281.14562,,,
518.89671,271,280.78308,,,
519.07442,276,279.16415,,,
519.25214,266,280.16592,,,
519.42987,305,279.80817,,,
519.60763,291,280.7739,,,
519.78539,290,279.94498,,,
519.96317,293,281.14111,,,
520.14097,282,280.42354,,,
520.31878,254,280.40198,,,
520.49661,276,280.21461,,,
520.67445,283,280.21561,,,
520.8523,278,280.20302,,,
521.03018,296,281.7337,,,
521.20806,282,281.68357,,,
521.38596,272,282.07857,,,
521.56388,283,282.32461,,,
521.74181,292,283.56524,,,
521.91976,239,282.82047,,,
522.09772,271,282.96,,,
522.2757,284,282.81807,,,
522.45369,285,282.88786,,,
522.6317,262,283.27869,,,
522.80972,310,284.4317,,,
522.98776,293,283.99672,,,
523.16581,288,286.05561,,,
523.34387,302,286.12025,,,
523.52196,314,285.34236,,,
523.70005,271,284.58255,,,
523.87817,278,284.64131,,,
524.05629,271,285.35745,,,
524.23444,292,285.41453,,,
524.41259,260,285.57215,,,
524.59077,308,286.19144,,,
524.76895,298,286.97064,,,
524.94715,298,286.61813,,,
525.12537,280,286.14168,,,
525.3036,319,286.64584,,,
525.48185,280,286.91338,,,
525.66011,294,287.10666,,,
525.83839,278,287.24365,,,
526.01668,281,286.86561,,,
526.19499,237,286.39514,,,
526.37332,312,287.33274,,,
526.55165,294,286.44941,,,
526.73001,292,287.21858,,,
526.90837,290,287.23224,,,
527.08676,265,287.35224,,,
527.26515,268,286.25129,,,
527.44357,316,287.48733,,,
527.622,248,286.81284,,,
527.80044,274,286.40617,,,
527.9789,304,287.43729,,,
528.15737,311,288.69913,,,
528.33586,272,288.22764,,,
528.51436,288,288.02014,,,
528.69288,301,287.72224,,,
528.87141,301,288.42893,,,
529.04996,292,287.78983,,,
529.22852,276,288.1538,,,
529.4071,282,287.51693,,,
529.5857,306,288.58269,,,
529.7643,280,288.14442,,,
529.94293,281,289.35618,,,
530.12157,303,289.63317,,,
530.30022,294,290.57098,,,
530.47889,302,290.50518,,,
530.65757,319,289.86754,,,
530.83627,283,288.26802,,,
531.01498,287,289.27264,,,
531.19371,253,290.2454,,,
531.37246,286,290.66088,,,
531.55121,282,290.25434,,,
531.72999,298,290.26787,,,
531.90878,265,289.41931,,,
532.08758,316,289.92371,,,
532.2664,307,288.36062,,,
532.44523,274,287.90344,,,
532.62408,280,288.77121,,,
532.80295,297,289.42966,,,
532.98183,294,289.30581,,,
533.16072,288,289.51544,,,
533.33963,272,290.68144,,,
533.51855,281,291.6014,,,
533.69749,294,291.79345,,,
533.87645,325,292.11328,,,
534.05542,271,291.90795,,,
534.2344,304,292.76471,,,
534.4134,291,292.04926,,,
534.59242,286,292.78156,,,
534.77144,276,292.59125,,,
534.95049,293,293.38477,,,
535.12955,317,293.54647,,,
535.30862,304,295.56663,,,
535.48771,289,294.98226,,,
535.66682,273,295.4052,,,
535.84594,289,295.20043,,,
536.02507,318,295.67777,,,
536.20422,278,296.32975,,,
536.38339,306,297.40855,,,
536.56257,312,296.42067,,,
536.74176,317,298.00247,,,
536.92097,303,298.34995,,,
537.1002,288,297.2618,,,
537.27944,306,297.45464,,,
537.45869,295,297.94768,,,
537.63796,298,298.48189,,,
537.81725,278,298.53741,,,
537.99655,286,298.51994,,,
538.17586,303,298.55797,,,
538.35519,281,297.47091,,,
538.53454,302,298.4905,,,
538.7139,291,298.04249,,,
538.89327,321,297.53274,,,
539.07266,271,296.25452,,,
539.25207,325,295.0783,,,
539.43149,286,293.86575,,,
539.61093,318,294.34766,,,
539.79038,276,295.11735,,,
539.96984,332,294.90677,,,
540.14932,305,293.63664,,,
540.32882,288,293.70674,,,
540.50833,292,293.6551,,,
540.68785,278,295.12336,,,
540.86739,275,293.97354,,,
541.04695,309,295.67859,,,
541.22652,271,295.55827,,,
541.40611,306,296.27366,,,
541.58571,325,296.13409,,,
541.76532,286,296.55786,,,
541.94496,290,297.59945,,,
542.1246,284,298.19355,,,
542.30426,292,298.83671,,,
542.48394,273,299.52925,,,
542.66363,272,299.133,,,
542.84334,322,299.73796,,,
543.02306,286,299.58386,,,
543.20279,280,300.64561,,,
543.38254,314,300.60389,,,
543.56231,333,301.93363,,,
543.74209,330,302.11144,,,
543.92189,324,303.04772,,,
544.1017,282,303.21527,,,
544.28153,296,304.25425,,,
544.46137,321,303.73544,,,
544.64123,349,306.04161,,,
544.8211,288,305.79397,,,
545.00098,304,306.54103,,,
545.18089,281,308.08363,,,
545.3608,331,307.83827,,,
545.54073,260,307.96523,,,
545.72068,329,309.15235,,,
545.90064,313,308.00571,,,
546.08062,335,308.70006,,,
546.26061,304,309.55856,,,
546.44062,301,310.13495,,,
546.62064,306,310.09656,,,
546.80068,308,309.28463,,,
546.98073,283,309.36764,,,
547.1608,325,308.50026,,,
547.34088,310,306.53691,,,
547.52098,314,307.81166,,,
547.70109,292,306.95993,,,
547.88122,318,306.59474,,,
548.06136,304,305.93019,,,
548.24152,291,307.21835,,,
548.42169,319,308.18542,,,
548.60187,309,308.89959,,,
548.78208,313,308.84835,,,
548.96229,326,309.34941,,,
549.14253,287,310.30553,,,
549.32278,353,312.14399,,,
549.50304,306,312.83667,,,
549.68332,278,313.9231,,,
549.86361,320,313.68267,,,
550.04392,300,315.23803,,,
550.22424,294,314.14145,,,
550.40458,334,316.00591,,,
550.58493,306,315.33638,,,
550.7653,323,316.2097,,,
550.94568,294,316.13108,,,
551.12608,315,316.78896,,,
551.30649,335,316.73839,,,
551.48692,312,317.15849,,,
551.66736,322,316.1487,,,
551.84782,357,317.24046,,,
552.02829,298,317.33172,,,
552.20878,334,318.50549,,,
552.38928,308,317.99599,,,
552.5698,353,318.26499,,,
552.75034,312,317.3685,,,
552.93088,325,317.10077,,,
553.11145,334,317.56169,,,
553.29203,319,318.60529,,,
553.47262,310,319.12225,,,
553.65323,319,320.31151,,,
553.83385,323,319.79266,,,
554.01449,302,322.54074,,,
554.19514,299,322.94451,,,
554.37581,316,322.78081,,,
554.5565,303,322.86428,,,
554.7372,318,322.92849,,,
554.91791,280,322.60565,,,
555.09864,352,323.89005,,,
555.27938,329,322.82025,,,
555.46014,335,323.22517,,,
555.64091,306,322.06725,,,
555.8217,334,322.07096,,,
556.00251,321,322.59918,,,
556.18333,344,322.74303,,,
556.36416,315,322.34531,,,
556.54501,336,324.09117,,,
556.72587,303,324.23939,,,
556.90675,336,324.96206,,,
557.08765,337,324.78387,,,
557.26856,368,326.17638,,,
557.44948,336,326.29419,,,
557.63042,340,327.02514,,,
557.81137,310,327.8993,,,
557.99234,330,328.7623,,,
558.17333,321,329.24533,,,
558.35433,339,329.80693,,,
558.53534,293,330.20245,,,
558.71637,325,330.68858,,,
558.89742,310,329.36232,,,
559.07848,340,329.85651,,,
559.25955,320,329.17436,,,
559.44064,322,329.6177,,,
559.62175,304,328.58706,,,
559.80287,357,329.64121,,,
559.984,326,330.14571,,,
560.16515,350,331.29874,,,
560.34632,331,330.92478,,,
560.5275,335,331.66849,,,
560.70869,326,331.18014,,,
560.8899,356,332.37188,,,
561.07113,324,333.1145,,,
561.25237,319,333.83553,,,
561.43362,334,333.9742,,,
561.61489,340,334.95069,,,
561.79618,335,335.46341,,,
561.97748,341,337.16918,,,
562.15879,334,337.5397,,,
562.34012,341,339.09665,,,
562.52147,328,338.322,,,
562.70283,330,337.67487,,,
562.8842,335,337.82013,,,
563.06559,346,338.88389,,,
563.247,320,338.34205,,,
563.42842,377,338.74172,,,
563.60986,333,338.20707,,,
563.79131,359,339.11439,,,
563.97277,335,337.58028,,,
564.15425,342,336.85757,,,
564.33575,342,336.34207,,,
564.51726,341,338.47054,,,
564.69879,325,339.05599,,,
564.88033,346,339.48108,,,
565.06188,335,339.40332,,,
565.24345,366,340.41797,,,
565.42504,335,339.42436,,,
565.60664,319,341.10677,,,
565.78826,338,340.84589,,,
565.96989,321,340.31539,,,
566.15153,320,339.87746,,,
566.33319,336,340.53981,,,
566.51487,330,340.47587,,,
566.69656,348,340.07033,,,
566.87827,312,340.5464,,,
567.05999,360,341.37249,,,
567.24173,380,341.02732,,,
567.42348,348,340.92149,,,
567.60524,335,341.15432,,,
567.78703,340,341.51018,,,
567.96882,335,342.28614,,,
568.15063,349,345.05429,,,
568.33246,328,345.64842,,,
568.5143,394,346.63879,,,
568.69616,374,346.81388,,,
568.87803,348,347.51818,,,
569.05992,307,348.09726,,,
569.24182,324,348.42973,,,
569.42374,353,347.71617,,,
569.60567,354,348.55435,,,
569.78761,319,348.99341,,,
569.96958,378,349.93137,,,
570.15155,319,350.05391,,,
570.33355,352,349.79218,,,
570.51555,355,349.98809,,,
570.69757,368,350.2757,,,
570.87961,338,348.42207,,,
571.06166,358,348.46678,,,
571.24373,380,347.82779,,,
571.42581,346,348.1502,,,
571.60791,340,347.55947,,,
571.79002,367,347.27348,,,
571.97215,362,348.32424,,,
572.15429,356,348.87087,,,
572.33645,365,347.58595,,,
572.51862,322,348.1244,,,
572.70081,306,346.68185,,,
572.88301,333,346.7626,,,
573.06523,345,345.26014,,,
573.24746,350,346.13704,,,
573.42971,338,347.09901,,,
573.61197,341,346.18111,,,
573.79425,348,344.001,,,
573.97654,368,343.22589,,,
574.15885,336,342.73492,,,
574.34117,336,343.07194,,,
574.52351,351,341.71397,,,
574.70587,350,343.80611,,,
574.88823,344,342.95015,,,
575.07062,344,342.95427,,,
575.25301,318,343.33706,,,
575.43543,386,344.51994,,,
575.61786,337,343.27052,,,
575.8003,351,342.99139,,,
575.98276,334,343.89481,,,
576.16523,322,344.9274,,,
576.34772,356,344.3022,,,
576.53022,335,345.67515,,,
576.71274,320,346.32368,,,
576.89527,368,347.62151,,,
577.07782,308,347.98048,,,
577.26039,367,347.912,,,
577.44296,329,346.23135,,,
577.62556,360,346.61064,,,
577.80817,350,345.33274,,,
577.99079,334,345.53582,,,
578.17343,377,345.8578,,,
578.35608,382,346.80847,,,
578.53875,349,346.99495,,,
578.72144,369,348.38372,,,
578.90413,345,348.23244,,,
579.08685,367,347.02637,,,
579.26958,307,347.03099,,,
579.45232,344,347.02349,,,
579.63508,345,346.66792,,,
579.81785,335,346.84496,,,
580.00064,320,346.62556,,,
580.18345,374,348.81737,,,
580.36627,366,349.97701,,,
580.5491,355,350.5809,,,
580.73195,318,350.35693,,,
580.91481,367,350.15001,,,
581.09769,328,351.34168,,,
581.28059,350,352.01244,,,
581.4635,323,350.91248,,,
581.64642,367,351.06997,,,
581.82936,340,349.22626,,,
582.01232,375,349.8701,,,
582.19528,328,349.28825,,,
582.37827,398,350.2372,,,
582.56127,359,349.25915,,,
582.74428,343,349.31276,,,
582.92731,320,350.79014,,,
583.11036,350,353.03103,,,
583.29342,330,352.98147,,,
583.47649,350,353.74373,,,
583.65958,388,354.15849,,,
583.84269,367,355.50447,,,
584.02581,371,354.23045,,,
584.20894,382,354.94362,,,
584.39209,368,355.76052,,,
584.57526,354,357.05434,,,
584.75844,340,355.76274,,,
584.94163,325,357.58511,,,
585.12484,355,358.59521,,,
585.30807,367,359.28628,,,
585.49131,352,359.22232,,,
585.67456,335,360.62457,,,
585.85783,327,361.1468,,,
586.04112,367,361.58717,,,
586.22442,375,360.86697,,,
586.40773,386,362.11359,,,
586.59106,362,360.61229,,,
586.77441,367,362.14893,,,
586.95777,345,362.79229,,,
587.14115,405,365.62332,,,
587.32454,357,366.94727,,,
587.50794,352,367.0354,,,
587.69136,334,367.1111,,,
587.8748,382,367.28035,,,
588.05825,381,366.8465,,,
588.24172,374,367.38594,,,
588.4252,368,368.63109,,,
588.60869,399,369.87128,,,
588.7922,368,370.2109,,,
588.97573,365,371.10367,,,
589.15927,334,371.80509,,,
589.34283,403,372.30891,,,
589.5264,353,371.33292,,,
589.70998,376,370.17092,,,
589.89358,380,369.73757,,,
590.0772,367,370.37161,,,
590.26083,364,369.67895,,,
590.44448,352,367.98034,,,
590.62814,373,366.71732,,,
590.81182,384,366.61347,,,
590.99551,360,366.43292,,,
591.17921,431,366.69506,,,
591.36293,369,366.34574,,,
591.54667,349,365.92643,,,
591.73042,341,364.56941,,,
591.91419,353,365.02874,,,
592.09797,377,364.773,,,
592.28177,348,363.00546,,,
592.46558,368,361.228,,,
592.64941,364,360.68812,,,
592.83325,344,359.78747,,,
593.0171,356,359.70187,,,
593.20098,334,359.21017,,,
593.38486,367,359.07196,,,
593.56876,362,359.20225,,,
593.75268,356,359.01248,,,
593.93661,346,356.95386,,,
594.12056,379,357.27298,,,
594.30452,366,355.92152,,,
594.4885,367,355.8255,,,
594.67249,340,356.55222,,,
594.8565,367,356.80126,,,
595.04052,382,356.90847,,,
595.22456,353,357.43756,,,
595.40861,347,358.16256,,,
595.59268,356,359.08607,,,
595.77676,353,359.76747,,,
595.96086,349,362.39661,,,
596.14497,354,364.10499,,,
596.3291,361,363.99508,,,
596.51324,361,363.47093,,,
596.6974,338,364.03896,,,
596.88157,382,365.57485,,,
597.06576,362,365.51097,,,
597.24996,367,366.8672,,,
597.43418,384,367.61043,,,
597.61841,353,367.2295,,,
597.80266,361,367.71886,,,
597.98692,386,368.05996,,,
598.1712,351,369.25532,,,
598.35549,358,369.22345,,,
598.5398,390,368.93857,,,
598.72412,384,367.51435,,,
598.90846,399,367.44395,,,
599.09281,385,366.53691,,,
599.27718,366,365.62568,,,
599.46157,372,364.05282,,,
599.64596,376,362.75279,,,
599.83038,348,362.27765,,,
600.01481,360,361.77279,,,
600.19925,367,360.93787,,,
600.38371,352,361.12995,,,
600.56818,362,360.71071,,,
600.75267,336,360.59754,,,
600.93717,376,359.76086,,,
601.12169,382,358.74251,,,
601.30622,355,357.52531,,,
601.49077,344,356.12519,,,
601.67534,368,356.41725,,,
601.85992,337,357.43238,,,
602.04451,351,358.02152,,,
602.22912,367,359.02034,,,
602.41374,346,359.26918,,,
602.59838,320,359.87431,,,
602.78303,313,360.4871,,,
602.9677,344,360.52837,,,
603.15239,343,360.41109,,,
603.33709,369,361.79481,,,
603.5218,357,362.1863,,,
603.70653,376,363.76083,,,
603.89127,382,366.08657,,,
604.07603,380,367.10591,,,
604.26081,402,368.76366,,,
604.44559,399,370.23027,,,
604.6304,377,370.80507,,,
604.81522,383,371.74391,,,
605.00005,356,372.89488,,,
605.1849,372,373.69866,,,
605.36977,355,374.24703,,,
605.55465,383,374.47428,,,
605.73954,400,376.08927,,,
605.92445,414,376.76652,,,
606.10937,402,378.01622,,,
606.29431,393,378.52321,,,
606.47927,350,380.89026,,,
606.66424,367,381.79875,,,
606.84922,372,382.43419,,,
607.03422,367,384.26689,,,
607.21924,360,384.78142,,,
607.40427,387,384.99864,,,
607.58931,374,383.63141,,,
607.77437,386,383.57175,,,
607.95945,370,382.30841,,,
608.14454,405,382.60185,,,
608.32964,390,382.37389,,,
608.51476,356,383.4174,,,
608.6999,383,383.0145,,,
608.88505,369,383.69669,,,
609.07021,382,383.80178,,,
609.25539,386,384.44801,,,
609.44059,386,383.99366,,,
609.6258,388,384.74697,,,
609.81102,386,384.47899,,,
609.99626,407,384.67064,,,
610.18152,393,383.74634,,,
610.36679,386,383.62543,,,
610.55207,432,384.49938,,,
610.73737,392,385.9082,,,
610.92269,406,386.71775,,,
611.10802,365,389.56654,,,
611.29337,378,389.14981,,,
611.47873,397,389.71064,,,
611.6641,370,389.60257,,,
611.84949,390,390.37034,,,
612.0349,365,390.47235,,,
612.22032,400,391.44035,,,
612.40576,378,392.36352,,,
612.59121,413,393.5946,,,
612.77667,384,393.45145,,,
612.96215,386,394.18259,,,
613.14765,356,395.37815,,,
613.33316,410,396.3972,,,
613.51869,372,397.49489,,,
613.70423,417,397.97239,,,
613.88978,404,398.6975,,,
614.07535,426,400.90693,,,
614.26094,395,401.84265,,,
614.44654,402,403.58235,,,
614.63216,401,405.16687,,,
614.81779,422,408.80015,,,
615.00344,426,410.24698,,,
615.1891,416,412.46164,,,
615.37477,421,415.62031,,,
615.56046,441,419.13683,,,
615.74617,367,421.78573,,,
615.93189,433,424.25783,,,
616.11763,417,426.34572,,,
616.30338,448,429.21509,,,
616.48915,416,431.07293,,,
616.67493,431,434.11923,,,
616.86073,431,436.0275,,,
617.04654,422,439.49569,,,
617.23236,425,441.23269,,,
617.41821,460,445.11835,,,
617.60406,476,447.24596,,,
617.78994,457,449.72742,,,
617.97582,431,450.46746,,,
618.16172,456,452.98464,,,
618.34764,468,454.0747,,,
618.53357,479,456.48588,,,
618.71952,437,457.7674,,,
618.90548,485,461.37935,,,
619.09146,467,463.13423,,,
619.27745,476,465.72514,,,
619.46346,431,466.9853,,,
619.64948,497,470.63691,,,
619.83552,471,473.22082,,,
620.02157,495,475.81947,,,
620.20764,451,478.33711,,,
620.39372,500,482.51734,,,
620.57982,469,483.83012,,,
620.76593,495,487.12163,,,
620.95206,492,489.36839,,,
621.1382,503,492.94525,,,
621.32436,484,496.04236,,,
621.51053,497,500.23548,,,
621.69672,478,503.11617,,,
621.88292,516,507.03832,,,
622.06914,480,509.19708,,,
622.25537,512,514.16041,,,
622.44162,502,519.53843,,,
622.62788,529,524.42973,,,
622.81416,524,528.66214,,,
623.00045,537,533.94172,,,
623.18676,541,539.29729,,,
623.37309,576,545.26875,,,
623.55942,527,549.57021,,,
623.74578,564,556.00877,,,
623.93215,546,561.21489,,,
624.11853,596,567.2924,,,
624.30493,542,571.56941,,,
624.49134,589,578.12535,,,
624.67777,588,583.76838,,,
624.86421,605,589.9583,,,
625.05067,578,594.84013,,,
625.23714,604,602.23828,,,
625.42363,606,607.5457,,,
625.61014,635,613.78489,,,
625.79665,633,619.83365,,,
625.98319,627,627.20959,,,
626.16974,609,632.20861,,,
626.3563,661,638.24007,,,
626.54288,623,643.53358,,,
626.72947,693,649.73764,,,
626.91608,644,653.56339,,,
627.10271,657,658.96491,,,
627.28934,666,663.76973,,,
627.476,669,670.61444,,,
627.66267,663,675.64964,,,
627.84935,680,682.03284,,,
628.03605,680,687.28336,,,
628.22276,702,694.00403,,,
628.40949,684,699.28007,,,
628.59624,717,706.20533,,,
628.783,705,711.75633,,,
628.96977,725,718.78983,,,
629.15656,719,723.19484,,,
629.34336,732,729.68033,,,
629.53018,746,736.11334,,,
629.71702,753,743.08494,,,
629.90387,719,748.92566,,,
630.09073,762,756.08202,,,
630.27761,761,762.15296,,,
630.46451,770,769.70591,,,
630.65142,738,776.17511,,,
630.83834,802,783.48411,,,
631.02528,784,789.08623,,,
631.21223,790,797.46823,,,
631.3992,798,803.14603,,,
631.58619,847,811.83957,,,
631.77319,830,818.0865,,,
631.9602,844,825.30479,,,
632.14723,802,832.94283,,,
632.33428,860,841.26354,,,
632.52134,830,848.30048,,,
632.70841,876,856.93377,,,
632.8955,870,864.05753,,,
633.08261,875,872.17593,,,
633.26973,856,879.60477,,,
633.45686,885,888.41765,,,
633.64401,889,895.76199,,,
633.83118,930,904.17067,,,
634.01836,911,911.35863,,,
634.20555,917,920.37339,,,
634.39276,921,928.21156,,,
634.57999,936,937.45394,,,
634.76723,918,945.01524,,,
634.95449,960,954.19142,,,
635.14176,945,962.55467,,,
635.32904,989,971.61424,,,
635.51634,962,978.51596,,,
635.70366,1006,987.85594,,,
635.89099,969,995.4225,,,
636.07833,1029,1003.86953,,,
636.26569,1007,1012.30603,,,
636.45307,1053,1022.1099,,,
636.64046,1042,1031.45249,,,
636.82787,1044,1041.08632,,,
637.01529,1028,1048.07669,,,
637.20272,1069,1058.12555,,,
637.39017,1034,1065.27321,,,
637.57764,1088,1074.60858,,,
637.76512,1083,1082.45528,,,
637.95262,1093,1091.88602,,,
638.14013,1082,1099.53791,,,
638.32766,1125,1108.6095,,,
638.5152,1115,1116.53963,,,
638.70275,1158,1126.00288,,,
638.89032,1114,1134.15348,,,
639.07791,1174,1142.5466,,,
639.26551,1141,1151.01386,,,
639.45313,1165,1160.71345,,,
639.64076,1153,1168.41521,,,
639.82841,1182,1178.09973,,,
640.01607,1169,1186.5866,,,
640.20374,1209,1196.61671,,,
640.39144,1191,1204.72158,,,
640.57914,1238,1214.25808,,,
640.76686,1217,1222.50792,,,
640.9546,1225,1233.13509,,,
641.14235,1231,1241.63698,,,
641.33012,1234,1251.87932,,,
641.5179,1240,1261.81678,,,
641.7057,1289,1271.56946,,,
641.89351,1243,1280.17411,,,
642.08134,1313,1290.12625,,,
642.26918,1289,1298.75508,,,
642.45703,1341,1308.59827,,,
642.64491,1297,1317.48468,,,
642.83279,1338,1327.08643,,,
643.0207,1318,1335.24818,,,
643.20861,1362,1345.44411,,,
643.39655,1357,1354.4736,,,
643.58449,1390,1365.0036,,,
643.77245,1394,1375.51736,,,
643.96043,1400,1385.8043,,,
644.14842,1374,1397.2752,,,
644.33643,1423,1408.64368,,,
644.52445,1398,1419.07137,,,
644.71249,1423,1430.22454,,,
644.90054,1415,1437.78579,,,
645.08861,1455,1447.70994,,,
645.27669,1454,1453.29219,,,
645.46479,1462,1461.733,,,
645.6529,1440,1468.31912,,,
645.84103,1492,1475.62128,,,
646.02917,1484,1482.52742,,,
646.21733,1488,1489.43321,,,
646.40551,1498,1496.76004,,,
646.59369,1521,1505.97409,,,
646.7819,1517,1514.25971,,,
646.97011,1525,1524.54085,,,
647.15835,1536,1532.68108,,,
647.34659,1567,1542.58357,,,
647.53486,1555,1548.7185,,,
647.72314,1594,1556.18474,,,
647.91143,1570,1561.28494,,,
648.09974,1602,1567.88561,,,
648.28806,1599,1573.75685,,,
648.4764,1552,1581.55082,,,
648.66475,1616,1589.11828,,,
648.85312,1537,1596.43224,,,
649.0415,1548,1602.58205,,,
649.2299,1551,1609.8339,,,
649.41832,1536,1616.11862,,,
649.60674,1632,1623.63123,,,
649.79519,1583,1631.05366,,,
649.98365,1710,1640.02815,,,
650.17212,1665,1648.77211,,,
650.36061,1711,1657.55521,,,
650.54911,1697,1664.49297,,,
650.73763,1717,1673.52733,,,
650.92616,1720,1680.44556,,,
651.11471,1708,1688.09611,,,
651.30328,1688,1694.88722,,,
651.49185,1661,1702.81227,,,
651.68045,1646,1709.47442,,,
651.86906,1681,1717.89356,,,
652.05768,1661,1725.27684,,,
652.24632,1736,1733.83572,,,
652.43497,1726,1741.7901,,,
652.62364,1784,1751.05042,,,
652.81233,1779,1759.15516,,,
653.00103,1803,1768.87245,,,
653.18974,1774,1777.9677,,,
653.37847,1788,1786.04834,,,
653.56721,1806,1795.21457,,,
653.75597,1821,1801.64824,,,
653.94475,1836,1807.85855,,,
654.13354,1849,1814.15647,,,
654.32234,1834,1818.62937,,,
654.51116,1827,1825.19998,,,
654.7,1810,1829.03445,,,
654.88885,1812,1837.73519,,,
655.07771,1812,1844.55376,,,
655.26659,1845,1851.83091,,,
655.45548,1819,1860.44667,,,
655.64439,1881,1868.87923,,,
655.83332,1859,1876.93006,,,
656.02226,1897,1884.11192,,,
656.21121,1883,1889.99826,,,
656.40018,1925,1894.96279,,,
656.58917,1873,1898.5753,,,
656.77817,1917,1903.01513,,,
656.96718,1911,1905.82883,,,
657.15621,1922,1910.40132,,,
657.34526,1920,1914.01155,,,
657.53432,1939,1919.29767,,,
657.72339,1918,1923.53863,,,
657.91248,1938,1928.57956,,,
658.10159,1920,1931.8132,,,
658.29071,1941,1936.31786,,,
658.47984,1947,1940.43084,,,
658.66899,1949,1944.17672,,,
658.85816,1929,1949.00181,,,
659.04734,1952,1954.02186,,,
659.23653,1961,1958.536,,,
659.42574,1995,1962.17233,,,
659.61497,1951,1964.09448,,,
659.80421,1967,1966.8443,,,
659.99347,1997,1969.14175,,,
660.18274,1935,1972.29022,,,
660.37202,1953,1974.05629,,,
660.56132,1964,1976.8175,,,
660.75064,1976,1977.71981,,,
660.93997,1992,1980.21914,,,
661.12932,1982,1982.18055,,,
661.31868,1992,1985.14995,,,
661.50805,1977,1985.40069,,,
661.69744,1989,1987.84872,,,
661.88685,1985,1988.99359,,,
662.07627,1993,1990.78903,,,
662.26571,1982,1991.93912,,,
662.45516,2005,1994.42776,,,
662.64462,1996,1995.779,,,
662.8341,2022,1997.10025,,,
663.0236,1982,1998.13765,,,
663.21311,2002,1999.14168,,,
663.40264,2024,2000.58425,,,
663.59218,1998,2001.92566,,,
663.78174,1999,2002.30877,,,
663.97131,1994,2003.11962,,,
664.16089,2007,2003.83438,,,
664.35049,2039,2005.92607,,,
664.54011,2000,2005.98623,,,
664.72974,1997,2006.5859,,,
664.91939,1983,2008.16388,,,
665.10905,1984,2007.55736,,,
665.29873,1996,2008.11289,,,
665.48842,2028,2008.86292,,,
665.67813,2004,2009.14911,,,
665.86785,1999,2008.93855,,,
666.05758,1999,2009.42019,,,
666.24734,2033,2009.46726,,,
666.4371,1994,2009.06297,,,
666.62688,2026,2008.73902,,,
666.81668,2010,2007.86487,,,
667.00649,2025,2007.30234,,,
667.19632,1993,2006.03128,,,
667.38616,2002,2004.72269,,,
667.57602,2016,2004.42952,,,
667.76589,2000,2004.60565,,,
667.95578,2014,2002.81243,,,
668.14568,1999,2001.70962,,,
668.3356,1997,2001.02625,,,
668.52553,2000,2000.03846,,,
668.71548,1999,1998.35244,,,
668.90544,2005,1996.50144,,,
669.09542,1989,1995.38959,,,
669.28541,2010,1994.812,,,
669.47542,2002,1993.39965,,,
669.66544,1996,1991.01364,,,
669.85548,2002,1988.59743,,,
670.04553,1967,1985.57009,,,
670.2356,1956,1982.82763,,,
670.42568,1971,1981.36714,,,
670.61578,1998,1978.79963,,,
670.80589,1958,1976.18476,,,
670.99602,1974,1973.5433,,,
671.18616,1966,1971.88355,,,
671.37632,1966,1969.55376,,,
671.56649,1973,1967.51607,,,
671.75668,1963,1964.78727,,,
671.94688,1968,1963.21742,,,
672.1371,1988,1959.67576,,,
672.32733,1939,1957.24164,,,
672.51758,1941,1955.22121,,,
672.70784,1961,1953.04655,,,
672.89812,1950,1950.36048,,,
673.08842,1954,1947.82183,,,
673.27872,1933,1944.73211,,,
673.46905,1950,1942.05912,,,
673.65939,1944,1938.9708,,,
673.84974,1924,1936.25586,,,
674.04011,1934,1933.35636,,,
674.23049,1919,1930.43127,,,
674.42089,1942,1928.36098,,,
674.6113,1921,1925.44488,,,
674.80173,1933,1923.5237,,,
674.99218,1928,1920.13806,,,
675.18263,1912,1916.3254,,,
675.37311,1922,1913.13765,,,
675.5636,1913,1910.20644,,,
675.7541,1907,1906.17971,,,
675.94462,1904,1902.94181,,,
676.13515,1882,1899.33179,,,
676.3257,1898,1895.63048,,,
676.51627,1904,1892.04684,,,
676.70684,1877,1888.51786,,,
676.89744,1909,1885.22093,,,
677.08805,1876,1882.25548,,,
677.27867,1871,1877.6055,,,
677.46931,1854,1874.38393,,,
677.65996,1881,1871.78566,,,
677.85063,1858,1868.4153,,,
678.04132,1870,1864.48062,,,
678.23202,1855,1860.34975,,,
678.42273,1865,1857.62029,,,
678.61346,1857,1855.01597,,,
678.8042,1844,1851.09944,,,
678.99496,1865,1847.40481,,,
679.18574,1828,1843.26451,,,
679.37653,1849,1839.76135,,,
679.56733,1820,1835.69571,,,
679.75815,1830,1832.86647,,,
679.94899,1826,1829.87563,,,
680.13984,1812,1825.40248,,,
680.3307,1828,1822.01653,,,
680.52158,1824,1818.0041,,,
680.71248,1809,1814.34037,,,
680.90338,1810,1811.0431,,,
681.09431,1810,1806.44726,,,
681.28525,1812,1802.26377,,,
681.4762,1799,1798.82106,,,
681.66717,1794,1794.04392,,,
681.85816,1805,1789.96636,,,
682.04916,1816,1785.50123,,,
682.24017,1765,1779.7187,,,
682.4312,1757,1774.42814,,,
682.62225,1768,1769.21912,,,
682.81331,1791,1764.13389,,,
683.00438,1777,1758.88944,,,
683.19548,1743,1753.80618,,,
683.38658,1727,1749.58937,,,
683.5777,1745,1744.86509,,,
683.76884,1743,1740.23285,,,
683.95999,1739,1735.29552,,,
684.15115,1738,1729.05416,,,
684.34233,1735,1724.58101,,,
684.53353,1701,1718.37013,,,
684.72474,1696,1713.99882,,,
684.91596,1727,1709.69261,,,
685.1072,1698,1704.71628,,,
685.29846,1708,1699.59757,,,
685.48973,1687,1695.98627,,,
685.68102,1665,1691.14759,,,
685.87232,1679,1688.2895,,,
686.06363,1675,1684.49935,,,
686.25496,1651,1681.46468,,,
686.44631,1663,1677.30859,,,
686.63767,1669,1672.57193,,,
686.82905,1647,1668.66124,,,
687.02044,1684,1661.93409,,,
687.21184,1647,1654.63675,,,
687.40326,1669,1645.96109,,,
687.5947,1641,1637.39747,,,
687.78615,1657,1629.00317,,,
687.97762,1636,1621.47618,,,
688.1691,1613,1613.30957,,,
688.3606,1619,1605.39577,,,
688.55211,1598,1598.48153,,,
688.74363,1628,1591.3283,,,
688.93517,1638,1583.97329,,,
689.12673,1599,1577.26723,,,
689.3183,1629,1570.4965,,,
689.50989,1574,1562.92566,,,
689.70149,1561,1555.96306,,,
689.89311,1562,1550.56346,,,
690.08474,1579,1544.09314,,,
690.27638,1519,1538.2557,,,
690.46805,1537,1531.83827,,,
690.65972,1457,1525.22481,,,
690.85142,1471,1519.22637,,,
691.04312,1430,1512.49602,,,
691.23484,1436,1506.84435,,,
691.42658,1433,1501.27561,,,
691.61833,1398,1496.15332,,,
691.8101,1498,1490.69499,,,
692.00188,1465,1487.00088,,,
692.19368,1499,1482.83019,,,
692.38549,1508,1479.10741,,,
692.57732,1536,1474.36809,,,
692.76916,1506,1471.75691,,,
692.96102,1501,1468.27697,,,
693.15289,1478,1466.04381,,,
693.34478,1462,1462.83374,,,
693.53668,1471,1460.65884,,,
693.7286,1480,1458.55775,,,
693.92053,1464,1455.93506,,,
694.11248,1471,1453.46812,,,
694.30444,1471,1451.22537,,,
694.49642,1448,1447.33403,,,
694.68841,1429,1442.81567,,,
694.88042,1441,1438.74224,,,
695.07244,1435,1436.05205,,,
695.26448,1440,1431.9378,,,
695.45653,1428,1428.10179,,,
695.6486,1424,1422.08374,,,
695.84068,1453,1416.84847,,,
696.03278,1397,1409.63791,,,
696.22489,1407,1401.99735,,,
696.41702,1403,1394.16037,,,
696.60916,1397,1385.04625,,,
696.80132,1380,1377.91798,,,
696.99349,1364,1370.79048,,,
697.18568,1376,1365.21525,,,
697.37788,1392,1359.55442,,,
697.5701,1343,1354.69313,,,
697.76233,1357,1348.42024,,,
697.95458,1290,1342.8322,,,
698.14684,1325,1337.25636,,,
698.33912,1263,1331.08664,,,
698.53142,1284,1325.56728,,,
698.72372,1317,1320.35788,,,
698.91605,1277,1315.02988,,,
699.10839,1304,1309.73456,,,
699.30074,1313,1305.01171,,,
699.49311,1327,1299.62029,,,
699.68549,1320,1294.19824,,,
699.87789,1298,1288.85481,,,
700.0703,1289,1283.99696,,,
700.26273,1298,1280.03142,,,
700.45518,1288,1275.00686,,,
700.64764,1263,1270.15411,,,
700.84011,1274,1266.63562,,,
701.0326,1279,1262.2369,,,
701.2251,1268,1259.06365,,,
701.41762,1257,1255.0265,,,
701.61015,1279,1251.44844,,,
701.8027,1242,1246.8014,,,
701.99527,1215,1242.69453,,,
702.18785,1223,1238.23527,,,
702.38044,1227,1235.18277,,,
702.57305,1253,1230.95977,,,
702.76567,1232,1227.57634,,,
702.95831,1211,1221.60187,,,
703.15097,1214,1216.48767,,,
703.34364,1200,1210.30467,,,
703.53632,1200,1203.49374,,,
703.72902,1190,1196.99191,,,
703.92173,1199,1190.15237,,,
704.11446,1185,1184.17647,,,
704.30721,1189,1178.30438,,,
704.49997,1172,1172.97302,,,
704.69274,1183,1168.09919,,,
704.88553,1164,1162.69766,,,
705.07834,1140,1157.03787,,,
705.27116,1167,1151.85411,,,
705.46399,1163,1147.05196,,,
705.65684,1156,1141.77377,,,
705.8497,1136,1136.22281,,,
706.04258,1103,1131.1969,,,
706.23548,1129,1126.92231,,,
706.42839,1110,1122.06791,,,
706.62131,1132,1118.90614,,,
706.81425,1098,1113.83153,,,
707.00721,1123,1108.65793,,,
707.20018,1097,1103.75071,,,
707.39316,1089,1099.01051,,,
707.58616,1072,1095.14345,,,
707.77918,1087,1091.59449,,,
707.97221,1087,1087.67442,,,
708.16525,1051,1084.29194,,,
708.35831,1080,1079.999,,,
708.55139,1101,1075.68969,,,
708.74448,1071,1071.23976,,,
708.93759,1064,1067.08349,,,
709.13071,1070,1063.02537,,,
709.32384,1071,1059.65345,,,
709.51699,1055,1055.41813,,,
709.71016,1055,1052.35863,,,
709.90334,1058,1047.98347,,,
710.09653,1056,1044.10662,,,
710.28974,1038,1040.46456,,,
710.48297,1030,1037.44212,,,
710.67621,1053,1034.27346,,,
710.86947,1048,1030.61542,,,
711.06274,1017,1026.03341,,,
711.25602,1029,1022.19953,,,
711.44932,998,1018.92385,,,
711.64264,1031,1016.10644,,,
711.83597,1009,1012.16435,,,
712.02932,1007,1009.09078,,,
712.22268,1007,1005.34825,,,
712.41605,1010,1001.02768,,,
712.60944,985,996.67052,,,
712.80285,978,993.04868,,,
712.99627,962,988.5594,,,
713.18971,979,983.15747,,,
713.38316,982,979.28664,,,
713.57663,980,976.49713,,,
713.77011,984,972.40526,,,
713.9636,972,968.23138,,,
714.15711,956,964.52051,,,
714.35064,972,961.2832,,,
714.54418,947,957.81961,,,
714.73774,978,954.08168,,,
714.93131,939,950.83248,,,
715.1249,960,947.83524,,,
715.3185,941,944.43274,,,
715.51212,944,941.16929,,,
715.70575,945,938.679,,,
715.89939,944,934.97268,,,
716.09306,946,931.6071,,,
716.28673,908,928.96704,,,
716.48042,913,926.13941,,,
716.67413,917,924.03196,,,
716.86785,913,921.03368,,,
717.06159,911,917.95529,,,
717.25534,923,915.36393,,,
717.44911,906,913.40232,,,
717.64289,893,910.62645,,,
717.83669,924,907.69066,,,
718.0305,921,904.04279,,,
718.22433,898,900.67324,,,
718.41817,885,898.02548,,,
718.61203,903,895.53714,,,
718.8059,902,892.88944,,,
718.99979,896,890.55118,,,
719.19369,885,887.45269,,,
719.38761,879,885.35335,,,
719.58154,891,882.53686,,,
719.77549,882,880.30737,,,
719.96945,876,877.57702,,,
720.16343,875,875.35346,,,
720.35742,863,873.24986,,,
720.55143,862,870.77082,,,
720.74545,908,868.90407,,,
720.93949,874,867.76733,,,
721.13354,865,865.61114,,,
721.32761,840,863.67197,,,
721.52169,848,860.89429,,,
721.71579,860,858.64205,,,
721.9099,865,856.54456,,,
722.10403,853,853.94195,,,
722.29817,838,851.59462,,,
722.49233,842,849.5712,,,
722.6865,840,847.05586,,,
722.88069,847,845.55777,,,
723.07489,856,843.03939,,,
723.26911,838,840.1916,,,
723.46335,833,837.83603,,,
723.65759,847,836.03925,,,
723.85186,829,834.57229,,,
724.04614,841,833.20193,,,
724.24043,826,830.23459,,,
724.43474,827,828.03998,,,
724.62906,843,826.00052,,,
724.8234,826,823.99753,,,
725.01775,833,822.26343,,,
725.21212,813,819.76385,,,
725.40651,831,817.09708,,,
725.6009,815,814.3774,,,
725.79532,790,813.99613,,,
725.98975,830,811.96172,,,
726.18419,785,809.43104,,,
726.37865,815,807.01022,,,
726.57312,801,804.91402,,,
726.76761,790,802.70636,,,
726.96212,804,801.02313,,,
727.15663,810,798.63107,,,
727.35117,783,795.59059,,,
727.54572,783,792.86373,,,
727.74028,778,790.63358,,,
727.93486,815,788.49926,,,
728.12946,810,787.9313,,,
728.32406,781,785.12066,,,
728.51869,779,781.83986,,,
728.71333,767,778.89898,,,
728.90798,756,777.10906,,,
729.10265,800,774.50982,,,
729.29734,769,771.89853,,,
729.49204,776,769.86985,,,
729.68675,767,768.31804,,,
729.88148,750,766.15488,,,
730.07622,774,763.86693,,,
730.27098,768,761.46268,,,
730.46576,768,759.67345,,,
730.66055,736,757.88312,,,
730.85535,761,754.51747,,,
731.05017,772,753.03094,,,
731.24501,742,750.01327,,,
731.43986,733,747.94482,,,
731.63472,746,745.56624,,,
731.8296,733,742.51294,,,
732.0245,745,740.13321,,,
732.21941,752,738.50094,,,
732.41433,745,734.64581,,,
732.60927,724,731.19672,,,
732.80423,725,727.02206,,,
732.9992,676,724.78027,,,
733.19418,730,722.6462,,,
733.38918,742,720.29593,,,
733.5842,749,717.48302,,,
733.77923,692,714.61859,,,
733.97427,730,710.32474,,,
734.16933,717,708.0443,,,
734.36441,696,705.41249,,,
734.5595,694,702.93658,,,
734.7546,697,700.28019,,,
734.94972,709,696.95239,,,
735.14486,693,693.47684,,,
735.34001,689,690.06732,,,
735.53518,671,685.7173,,,
735.73036,695,681.0215,,,
735.92555,669,677.42098,,,
736.12076,672,674.52946,,,
736.31599,665,670.59007,,,
736.51123,658,666.88174,,,
736.70649,665,662.7669,,,
736.90176,652,658.67508,,,
737.09704,628,653.97071,,,
737.29234,673,650.4792,,,
737.48766,657,646.62796,,,
737.68299,675,641.51333,,,
737.87834,648,637.14324,,,
738.0737,642,631.02899,,,
738.26907,618,626.70643,,,
738.46446,626,622.54339,,,
738.65987,609,619.69116,,,
738.85529,640,615.01638,,,
739.05073,614,611.88256,,,
739.24618,591,608.32241,,,
739.44165,585,604.34155,,,
739.63713,574,600.33604,,,
739.83262,569,596.32356,,,
740.02814,591,592.85705,,,
740.22366,580,587.78308,,,
740.4192,612,583.20417,,,
740.61476,591,577.48123,,,
740.81033,575,572.96204,,,
741.00592,560,567.01058,,,
741.20152,562,562.68971,,,
741.39714,537,557.63838,,,
741.59277,557,553.21251,,,
741.78842,538,548.45163,,,
741.98408,568,543.29482,,,
742.17975,534,538.67297,,,
742.37545,538,535.1316,,,
742.57115,560,530.20549,,,
742.76688,535,526.29518,,,
742.96261,539,522.26245,,,
743.15836,527,518.50692,,,
743.35413,536,513.85171,,,
743.54991,502,509.75755,,,
743.74571,504,505.4702,,,
743.94152,485,502.29067,,,
744.13735,484,498.35165,,,
744.33319,472,493.41505,,,
744.52905,463,488.63766,,,
744.72492,459,483.73222,,,
744.92081,447,477.68568,,,
745.11671,484,472.6194,,,
745.31263,463,468.24284,,,
745.50856,483,464.42832,,,
745.70451,468,458.84516,,,
745.90047,495,454.22601,,,
746.09645,444,448.93853,,,
746.29244,461,444.56656,,,
746.48845,431,438.99545,,,
746.68447,448,434.52518,,,
746.88051,450,429.11151,,,
747.07656,403,424.89932,,,
747.27263,406,420.73247,,,
747.46872,440,416.13035,,,
747.66481,431,412.77084,,,
747.86093,414,409.82086,,,
748.05705,400,406.54327,,,
748.2532,406,403.33826,,,
748.44936,394,400.3256,,,
748.64553,381,396.89511,,,
748.84172,373,392.98152,,,
749.03792,373,388.98084,,,
749.23414,382,384.42304,,,
749.43037,367,380.03169,,,
749.62662,354,375.62697,,,
749.82288,383,371.14589,,,
750.01916,372,366.43378,,,
750.21546,336,361.7812,,,
750.41176,349,357.8884,,,
750.60809,397,354.49464,,,
750.80443,356,350.80432,,,
751.00078,367,348.17597,,,
751.19715,340,344.61406,,,
751.39353,356,341.84675,,,
751.58993,340,338.65317,,,
751.78634,356,335.74398,,,
751.98277,352,333.39768,,,
752.17922,321,330.07919,,,
752.37568,342,326.04084,,,
752.57215,329,323.53738,,,
752.76864,294,321.80276,,,
752.96514,311,319.39783,,,
753.16166,300,315.51351,,,
753.3582,307,313.66142,,,
753.55475,290,310.87857,,,
753.75131,310,307.97952,,,
753.94789,296,306.25638,,,
754.14448,316,303.44033,,,
754.34109,301,301.68056,,,
754.53772,292,298.6741,,,
754.73436,289,295.28719,,,
754.93101,282,294.01955,,,
755.12768,321,291.8137,,,
755.32436,281,288.28565,,,
755.52106,289,285.22515,,,
755.71778,292,284.74398,,,
755.91451,294,283.28626,,,
756.11125,284,281.35688,,,
756.30801,280,279.12435,,,
756.50479,269,277.53111,,,
756.70158,281,276.51668,,,
756.89838,272,276.02376,,,
757.0952,261,275.53478,,,
757.29204,290,273.52248,,,
757.48889,280,272.75358,,,
757.68575,253,270.66833,,,
757.88263,264,268.62561,,,
758.07953,309,267.60663,,,
758.27644,254,266.56869,,,
758.47336,279,265.53956,,,
758.6703,276,265.01246,,,
758.86726,228,264.40563,,,
759.06423,264,263.34429,,,
759.26121,239,263.03413,,,
759.45821,269,261.5194,,,
759.65523,273,260.82654,,,
759.85226,233,260.64912,,,
760.0493,258,258.9887,,,
760.24636,271,259.03203,,,
760.44344,272,258.19058,,,
760.64053,240,257.00979,,,
760.83763,238,256.77784,,,
761.03476,272,256.90874,,,
761.23189,264,255.75062,,,
761.42904,266,255.13844,,,
761.62621,236,253.53738,,,
761.82339,238,252.58903,,,
762.02058,240,250.65601,,,
762.21779,267,248.90516,,,
762.41502,253,247.40035,,,
762.61226,296,247.30954,,,
762.80952,268,245.26019,,,
763.00679,253,244.58767,,,
763.20407,244,244.77257,,,
763.40138,252,244.11445,,,
763.59869,216,244.07586,,,
763.79602,236,245.02039,,,
763.99337,238,243.5729,,,
764.19073,234,243.58901,,,
764.38811,265,242.29321,,,
764.5855,231,242.7693,,,
764.7829,207,241.59825,,,
764.98033,248,239.16499,,,
765.17776,233,237.79904,,,
765.37521,225,237.33231,,,
765.57268,245,236.51947,,,
765.77016,217,234.07941,,,
765.96766,205,232.52939,,,
766.16517,239,231.35693,,,
766.3627,217,230.58529,,,
766.56024,239,229.91178,,,
766.75779,230,229.86358,,,
766.95537,258,229.44334,,,
767.15295,244,227.70036,,,
767.35055,271,227.42096,,,
767.54817,219,227.09289,,,
767.7458,260,228.00815,,,
767.94345,225,229.15169,,,
768.14111,246,228.38492,,,
768.33879,224,228.36227,,,
768.53648,228,227.81343,,,
768.73419,191,226.35484,,,
768.93191,218,226.16365,,,
769.12965,198,225.3868,,,
769.3274,212,224.9072,,,
769.52517,175,225.58291,,,
769.72295,234,225.54783,,,
769.92075,239,224.03586,,,
770.11856,228,224.95905,,,
770.31639,212,223.56801,,,
770.51423,228,223.30907,,,
770.71209,256,223.67363,,,
770.90996,225,223.64396,,,
771.10785,250,222.59961,,,
771.30575,236,221.99518,,,
771.50367,241,221.21917,,,
771.7016,189,220.64901,,,
771.89955,196,220.18447,,,
772.09751,241,220.82838,,,
772.29549,222,220.91608,,,
772.49348,212,221.53136,,,
772.69149,218,221.40612,,,
772.88951,187,222.66774,,,
773.08755,240,222.37226,,,
773.2856,209,222.48554,,,
773.48367,238,221.85202,,,
773.68175,236,221.49906,,,
773.87985,212,220.58919,,,
774.07796,235,220.81094,,,
774.27609,223,219.84729,,,
774.47424,218,218.95119,,,
774.67239,210,217.01774,,,
774.87057,234,216.11475,,,
775.06875,190,215.85705,,,
775.26696,256,214.77587,,,
775.46518,212,212.86813,,,
775.66341,210,212.36291,,,
775.86166,192,212.35217,,,
776.05992,207,211.77537,,,
776.2582,224,212.55936,,,
776.45649,207,213.84201,,,
776.6548,221,214.85279,,,
776.85313,209,213.59308,,,
777.05147,200,212.65447,,,
777.24982,207,212.40266,,,
777.44819,222,211.74495,,,
777.64657,198,211.79981,,,
777.84497,191,210.30504,,,
778.04338,210,208.9436,,,
778.24181,220,209.74074,,,
778.44026,228,208.91526,,,
778.63872,226,209.28442,,,
778.83719,206,209.24959,,,
779.03568,188,209.15411,,,
779.23418,202,209.56314,,,
779.4327,209,209.6134,,,
779.63124,200,210.37831,,,
779.82979,220,210.81023,,,
780.02835,206,211.62314,,,
780.22693,226,211.68572,,,
780.42552,242,213.58767,,,
780.62413,213,214.47548,,,
780.82276,230,214.30318,,,
781.0214,225,214.52484,,,
781.22005,208,215.20243,,,
781.41872,178,215.9038,,,
781.61741,191,217.18721,,,
781.81611,214,216.91986,,,
782.01482,205,217.65413,,,
782.21355,228,218.2945,,,
782.41229,229,218.32152,,,
782.61105,195,218.60518,,,
782.80983,256,219.83209,,,
783.00862,223,218.99248,,,
783.20742,202,219.92863,,,
783.40624,228,219.14342,,,
783.60508,220,221.23699,,,
783.80393,239,221.97606,,,
784.00279,222,222.29235,,,
784.20167,232,222.31577,,,
784.40057,239,222.89973,,,
784.59948,213,223.18517,,,
784.7984,216,222.43827,,,
784.99734,230,222.60536,,,
785.1963,212,222.47125,,,
785.39527,217,222.19534,,,
785.59425,211,223.29054,,,
785.79326,247,223.04331,,,
785.99227,216,223.57027,,,
786.1913,212,223.33357,,,
786.39035,229,223.12073,,,
786.58941,191,222.05418,,,
786.78848,259,221.84763,,,
786.98757,217,221.98138,,,
787.18668,208,220.32449,,,
787.3858,234,220.32968,,,
787.58494,244,220.03989,,,
787.78409,186,218.56509,,,
787.98325,244,219.86163,,,
788.18243,200,219.46703,,,
788.38163,271,219.42053,,,
788.58084,184,219.168,,,
788.78007,227,219.24444,,,
788.97931,222,219.82011,,,
789.17856,209,220.12961,,,
789.37783,196,221.52767,,,
789.57712,207,223.17663,,,
789.77642,230,223.57691,,,
789.97574,218,224.52264,,,
790.17507,212,224.13248,,,
790.37441,237,224.38862,,,
790.57378,210,223.19595,,,
790.77315,228,222.63048,,,
790.97254,220,222.93415,,,
791.17195,245,223.31783,,,
791.37137,230,222.63981,,,
791.57081,225,222.54774,,,
791.77026,200,221.74622,,,
791.96973,204,222.63055,,,
792.16921,255,222.76124,,,
792.3687,224,223.20175,,,
792.56822,238,223.6874,,,
792.76774,246,224.06956,,,
792.96728,215,222.79725,,,
793.16684,244,222.86333,,,
793.36641,210,221.76122,,,
793.566,242,221.12249,,,
793.7656,225,219.82319,,,
793.96522,229,220.08775,,,
794.16485,223,220.66205,,,
794.3645,194,219.74083,,,
794.56416,189,217.97212,,,
794.76384,201,216.87354,,,
794.96353,178,215.98498,,,
795.16324,235,214.26542,,,
795.36296,194,212.6744,,,
795.5627,247,212.51421,,,
795.76245,221,211.41315,,,
795.96222,230,210.8971,,,
796.162,197,210.04129,,,
796.36179,226,211.69132,,,
796.56161,224,211.78101,,,
796.76143,207,211.88487,,,
796.96128,217,210.50228,,,
797.16113,202,209.95155,,,
797.36101,175,210.87764,,,
797.5609,193,210.02892,,,
797.7608,207,211.36094,,,
797.96072,202,212.49347,,,
798.16065,212,211.90702,,,
798.3606,207,211.99094,,,
798.56056,270,211.31985,,,
798.76054,212,212.9699,,,
798.96053,197,213.66955,,,
799.16054,177,214.66203,,,
799.36056,210,215.36182,,,
799.5606,223,215.26542,,,
799.76065,208,214.48282,,,
799.96072,224,214.57358,,,
800.1608,245,213.63138,,,
800.3609,239,213.39799,,,
800.56101,219,212.81873,,,
800.76114,226,213.00304,,,
800.96129,226,213.15914,,,
801.16144,233,213.32359,,,
801.36162,173,213.84647,,,
801.56181,210,215.33724,,,
801.76201,205,216.23149,,,
801.96223,230,217.20782,,,
802.16246,203,217.85846,,,
802.36271,204,217.88686,,,
802.56297,239,216.07486,,,
802.76325,181,216.49224,,,
802.96355,196,214.94543,,,
803.16385,226,214.76099,,,
803.36418,239,215.50576,,,
803.56452,238,215.17566,,,
803.76487,194,216.96496,,,
803.96524,211,217.8183,,,
804.16562,207,219.07246,,,
804.36602,213,218.38411,,,
804.56644,210,218.24241,,,
804.76687,225,218.47892,,,
804.96731,204,218.10181,,,
805.16777,210,218.29933,,,
805.36824,244,218.82915,,,
805.56873,218,220.01099,,,
805.76924,250,221.76706,,,
805.96976,234,222.09386,,,
806.17029,250,222.52237,,,
806.37084,207,223.27901,,,
806.5714,200,223.08607,,,
806.77198,219,223.56545,,,
806.97258,198,223.33405,,,
807.17319,217,224.05882,,,
807.37381,223,222.95325,,,
807.57445,258,222.3263,,,
807.77511,196,223.00727,,,
807.97577,277,222.24854,,,
808.17646,230,222.05912,,,
808.37716,206,221.06682,,,
808.57787,236,221.34288,,,
808.7786,234,222.29303,,,
808.97935,213,221.92444,,,
809.18011,177,221.16854,,,
809.38088,212,220.1752,,,
809.58167,221,220.32837,,,
809.78248,221,218.63637,,,
809.9833,227,217.99368,,,
810.18413,224,217.25113,,,
810.38498,239,217.00702,,,
810.58585,217,217.10542,,,
810.78673,175,217.61206,,,
810.98762,228,218.08754,,,
811.18853,228,218.36979,,,
811.38946,228,219.11198,,,
811.5904,196,219.03527,,,
811.79136,201,218.524,,,
811.99233,216,219.30075,,,
812.19331,207,218.41009,,,
812.39431,243,217.96448,,,
812.59533,228,217.52071,,,
812.79636,220,218.75003,,,
812.9974,208,218.42282,,,
813.19846,194,219.11926,,,
813.39954,250,219.33745,,,
813.60063,226,217.39937,,,
813.80174,205,217.90095,,,
814.00286,202,217.89511,,,
814.20399,228,218.04245,,,
814.40514,232,216.98535,,,
814.60631,196,216.85789,,,
814.80749,255,216.39133,,,
815.00869,239,216.36644,,,
815.2099,222,216.5264,,,
815.41112,207,216.77782,,,
815.61236,230,217.44359,,,
815.81362,190,216.89735,,,
816.01489,223,215.18091,,,
816.21618,218,214.7238,,,
816.41748,223,214.73003,,,
816.6188,209,214.711,,,
816.82013,212,214.16449,,,
817.02147,181,213.59381,,,
817.22283,210,213.7064,,,
817.42421,210,213.61678,,,
817.6256,215,214.80523,,,
817.82701,195,214.98199,,,
818.02843,182,214.56697,,,
818.22987,230,213.27801,,,
818.43132,207,212.2928,,,
818.63278,260,214.08107,,,
818.83427,212,214.02707,,,
819.03576,232,213.92004,,,
819.23728,208,213.20209,,,
819.4388,207,213.30019,,,
819.64034,204,213.27058,,,
819.8419,224,213.34939,,,
820.04347,210,214.25061,,,
820.24506,210,214.49326,,,
820.44666,204,214.19615,,,
820.64828,206,214.70126,,,
820.84991,228,215.55596,,,
821.05156,224,214.48343,,,
821.25322,234,214.42096,,,
821.4549,223,213.84731,,,
821.65659,228,214.78067,,,
821.8583,214,214.92566,,,
822.06002,216,214.87411,,,
822.26176,205,213.62321,,,
822.46351,199,213.88478,,,
822.66528,189,214.23652,,,
822.86706,209,212.78346,,,
823.06886,223,211.66631,,,
823.27067,244,211.50642,,,
823.4725,220,211.46332,,,
823.67434,180,211.51174,,,
823.8762,220,213.36257,,,
824.07807,200,214.87771,,,
824.27996,214,215.50989,,,
824.48186,212,216.08791,,,
824.68378,224,215.25101,,,
824.88571,182,215.77062,,,
825.08766,212,215.89948,,,
825.28962,226,214.80439,,,
825.4916,234,213.99253,,,
825.69359,192,214.48964,,,
825.8956,201,213.75014,,,
826.09762,226,213.70781,,,
826.29966,226,213.95413,,,
826.50171,244,215.19097,,,
826.70378,201,216.01848,,,
826.90587,213,217.37437,,,
827.10796,223,218.87347,,,
827.31008,232,219.84747,,,
827.51221,207,220.05672,,,
827.71435,201,219.21464,,,
827.91651,271,218.22057,,,
828.11868,246,219.09502,,,
828.32087,196,218.92938,,,
828.52307,238,220.7563,,,
828.72529,214,220.83855,,,
828.92753,208,219.44975,,,
829.12977,170,220.24825,,,
829.33204,217,219.73909,,,
829.53432,194,219.21688,,,
829.73661,240,220.18945,,,
829.93892,189,220.36372,,,
830.14124,220,218.85356,,,
830.34358,252,218.51177,,,
830.54594,248,218.65505,,,
830.7483,197,218.73343,,,
830.95069,239,218.21224,,,
831.15309,242,217.4647,,,
831.3555,234,217.73816,,,
831.55793,214,218.89212,,,
831.76037,219,219.54513,,,
831.96283,207,219.11928,,,
832.16531,185,218.46782,,,
832.3678,200,218.09051,,,
832.5703,212,219.14231,,,
832.77282,241,218.80761,,,
832.97536,236,218.67469,,,
833.1779,188,219.35586,,,
833.38047,236,220.30467,,,
833.58305,192,218.29523,,,
833.78564,229,219.62203,,,
833.98825,239,219.97146,,,
834.19088,202,218.68257,,,
834.39352,224,216.504,,,
834.59617,239,216.6778,,,
834.79884,184,215.50058,,,
835.00153,220,215.09597,,,
835.20423,234,213.56087,,,
835.40694,222,213.40067,,,
835.60967,220,213.8419,,,
835.81242,234,213.77823,,,
836.01518,212,212.618,,,
836.21795,224,214.08707,,,
836.42074,213,212.73866,,,
836.62355,180,210.94548,,,
836.82637,214,211.23905,,,
837.0292,207,213.03248,,,
837.23205,224,212.87479,,,
837.43492,226,213.41389,,,
837.6378,186,212.79411,,,
837.84069,204,213.56889,,,
838.0436,184,215.50694,,,
838.24653,228,216.91694,,,
838.44947,202,216.77778,,,
838.65242,256,217.95196,,,
838.85539,186,217.12866,,,
839.05838,192,217.33616,,,
839.26138,241,218.40891,,,
839.4644,232,218.95921,,,
839.66743,194,218.46121,,,
839.87047,212,219.96661,,,
840.07353,233,219.55811,,,
840.27661,222,220.43398,,,
840.4797,203,221.03273,,,
840.68281,217,221.61215,,,
840.88593,239,221.65725,,,
841.08906,230,222.9479,,,
841.29221,181,223.08179,,,
841.49538,288,224.09361,,,
841.69856,316,224.83393,,,
841.90176,238,223.41292,,,
842.10497,191,223.66305,,,
842.30819,244,223.98727,,,
842.51143,194,223.90349,,,
842.71469,243,224.31369,,,
842.91796,206,224.013,,,
843.12125,193,223.01311,,,
843.32455,206,222.01717,,,
843.52787,207,221.50681,,,
843.7312,207,221.05312,,,
843.93454,230,222.32232,,,
844.13791,233,220.52384,,,
844.34128,218,219.31799,,,
844.54467,197,220.31498,,,
844.74808,255,220.66867,,,
844.9515,207,219.78172,,,
845.15494,214,219.53793,,,
845.35839,201,219.30104,,,
845.56186,225,219.07106,,,
845.76534,216,218.84797,,,
845.96884,234,218.63179,,,
846.17235,208,218.42251,,,
846.37587,226,218.22013,,,
846.57942,208,218.02466,,,
846.78297,204,217.83608,,,
846.98655,241,217.65441,,,
847.19013,216,217.47964,,,
847.39373,203,217.31177,,,
847.59735,233,217.1508,,,
847.80098,221,216.99674,,,
848.00463,201,216.84957,,,
848.20829,238,216.70931,,,
848.41197,214,216.57595,,,
848.61566,240,216.44949,,,
848.81937,212,216.32994,,,
849.02309,207,216.21728,,,
849.22683,242,216.11153,,,
849.43058,224,216.01268,,,
849.63435,195,215.92073,,,
849.83813,207,215.83568,,,
850.04193,207,215.75753,,,
